Dec. 11, 2018   21:01:33
Linear Sweep Voltammetry
File: r:\group-shared\andy\760_data\181211\181211_lsv_afterbulke.txt
Data Source:  Experiment
Instrument Model:  CHI760E
Header: 
Note: 

Init E (V) = 0.39
Final E (V) = 2
Scan Rate (V/s) = 0.02
Sample Interval (V) = 0.001
Quiet Time (sec) = 0
Sensitivity (A/V) = 0.001


Potential/V, Current/A

0.390, 2.200e-5
0.391, 2.775e-5
0.392, 3.200e-5
0.393, 4.240e-5
0.394, 4.906e-5
0.395, 5.156e-5
0.396, 6.024e-5
0.397, 6.880e-5
0.398, 7.093e-5
0.399, 7.676e-5
0.400, 8.672e-5
0.401, 9.035e-5
0.402, 9.392e-5
0.403, 1.035e-4
0.404, 1.099e-4
0.405, 1.114e-4
0.406, 1.196e-4
0.407, 1.286e-4
0.408, 1.312e-4
0.409, 1.371e-4
0.410, 1.474e-4
0.411, 1.512e-4
0.412, 1.539e-4
0.413, 1.631e-4
0.414, 1.698e-4
0.415, 1.720e-4
0.416, 1.797e-4
0.417, 1.884e-4
0.418, 1.904e-4
0.419, 1.953e-4
0.420, 2.054e-4
0.421, 2.101e-4
0.422, 2.127e-4
0.423, 2.218e-4
0.424, 2.287e-4
0.425, 2.306e-4
0.426, 2.376e-4
0.427, 2.467e-4
0.428, 2.490e-4
0.429, 2.539e-4
0.430, 2.642e-4
0.431, 2.689e-4
0.432, 2.721e-4
0.433, 2.818e-4
0.434, 2.891e-4
0.435, 2.907e-4
0.436, 2.973e-4
0.437, 3.063e-4
0.438, 3.098e-4
0.439, 3.142e-4
0.440, 3.238e-4
0.441, 3.287e-4
0.442, 3.314e-4
0.443, 3.396e-4
0.444, 3.466e-4
0.445, 3.489e-4
0.446, 3.558e-4
0.447, 3.652e-4
0.448, 3.672e-4
0.449, 3.709e-4
0.450, 3.804e-4
0.451, 3.860e-4
0.452, 3.884e-4
0.453, 3.965e-4
0.454, 4.042e-4
0.455, 4.058e-4
0.456, 4.125e-4
0.457, 4.219e-4
0.458, 4.250e-4
0.459, 4.281e-4
0.460, 4.374e-4
0.461, 4.429e-4
0.462, 4.453e-4
0.463, 4.531e-4
0.464, 4.607e-4
0.465, 4.624e-4
0.466, 4.676e-4
0.467, 4.773e-4
0.468, 4.808e-4
0.469, 4.842e-4
0.470, 4.928e-4
0.471, 4.988e-4
0.472, 5.010e-4
0.473, 5.086e-4
0.474, 5.161e-4
0.475, 5.184e-4
0.476, 5.232e-4
0.477, 5.320e-4
0.478, 5.349e-4
0.479, 5.380e-4
0.480, 5.469e-4
0.481, 5.531e-4
0.482, 5.558e-4
0.483, 5.632e-4
0.484, 5.715e-4
0.485, 5.732e-4
0.486, 5.773e-4
0.487, 5.854e-4
0.488, 5.886e-4
0.489, 5.913e-4
0.490, 5.998e-4
0.491, 6.061e-4
0.492, 6.082e-4
0.493, 6.149e-4
0.494, 6.223e-4
0.495, 6.234e-4
0.496, 6.282e-4
0.497, 6.373e-4
0.498, 6.416e-4
0.499, 6.452e-4
0.500, 6.527e-4
0.501, 6.586e-4
0.502, 6.609e-4
0.503, 6.675e-4
0.504, 6.747e-4
0.505, 6.760e-4
0.506, 6.800e-4
0.507, 6.882e-4
0.508, 6.919e-4
0.509, 6.949e-4
0.510, 7.035e-4
0.511, 7.086e-4
0.512, 7.099e-4
0.513, 7.157e-4
0.514, 7.230e-4
0.515, 7.248e-4
0.516, 7.290e-4
0.517, 7.370e-4
0.518, 7.407e-4
0.519, 7.416e-4
0.520, 7.491e-4
0.521, 7.547e-4
0.522, 7.563e-4
0.523, 7.621e-4
0.524, 7.692e-4
0.525, 7.703e-4
0.526, 7.728e-4
0.527, 7.803e-4
0.528, 7.845e-4
0.529, 7.878e-4
0.530, 7.953e-4
0.531, 8.013e-4
0.532, 8.023e-4
0.533, 8.068e-4
0.534, 8.132e-4
0.535, 8.145e-4
0.536, 8.175e-4
0.537, 8.255e-4
0.538, 8.301e-4
0.539, 8.311e-4
0.540, 8.378e-4
0.541, 8.428e-4
0.542, 8.434e-4
0.543, 8.480e-4
0.544, 8.570e-4
0.545, 8.603e-4
0.546, 8.632e-4
0.547, 8.686e-4
0.548, 8.711e-4
0.549, 8.721e-4
0.550, 8.793e-4
0.551, 8.854e-4
0.552, 8.869e-4
0.553, 8.911e-4
0.554, 8.973e-4
0.555, 8.986e-4
0.556, 9.000e-4
0.557, 9.065e-4
0.558, 9.109e-4
0.559, 9.137e-4
0.560, 9.181e-4
0.561, 9.222e-4
0.562, 9.230e-4
0.563, 9.269e-4
0.564, 9.329e-4
0.565, 9.342e-4
0.566, 9.364e-4
0.567, 9.429e-4
0.568, 9.464e-4
0.569, 9.472e-4
0.570, 9.524e-4
0.571, 9.576e-4
0.572, 9.587e-4
0.573, 9.628e-4
0.574, 9.691e-4
0.575, 9.697e-4
0.576, 9.709e-4
0.577, 9.763e-4
0.578, 9.794e-4
0.579, 9.805e-4
0.580, 9.856e-4
0.581, 9.908e-4
0.582, 9.912e-4
0.583, 9.948e-4
0.584, 1.001e-3
0.585, 1.003e-3
0.586, 1.006e-3
0.587, 1.013e-3
0.588, 1.015e-3
0.589, 1.014e-3
0.590, 1.016e-3
0.591, 1.022e-3
0.592, 1.022e-3
0.593, 1.024e-3
0.594, 1.029e-3
0.595, 1.030e-3
0.596, 1.031e-3
0.597, 1.036e-3
0.598, 1.041e-3
0.599, 1.042e-3
0.600, 1.045e-3
0.601, 1.049e-3
0.602, 1.049e-3
0.603, 1.052e-3
0.604, 1.057e-3
0.605, 1.060e-3
0.606, 1.061e-3
0.607, 1.066e-3
0.608, 1.068e-3
0.609, 1.070e-3
0.610, 1.073e-3
0.611, 1.077e-3
0.612, 1.076e-3
0.613, 1.079e-3
0.614, 1.085e-3
0.615, 1.087e-3
0.616, 1.088e-3
0.617, 1.092e-3
0.618, 1.096e-3
0.619, 1.095e-3
0.620, 1.101e-3
0.621, 1.106e-3
0.622, 1.107e-3
0.623, 1.106e-3
0.624, 1.109e-3
0.625, 1.110e-3
0.626, 1.111e-3
0.627, 1.115e-3
0.628, 1.118e-3
0.629, 1.118e-3
0.630, 1.121e-3
0.631, 1.126e-3
0.632, 1.126e-3
0.633, 1.127e-3
0.634, 1.131e-3
0.635, 1.132e-3
0.636, 1.132e-3
0.637, 1.135e-3
0.638, 1.138e-3
0.639, 1.138e-3
0.640, 1.141e-3
0.641, 1.146e-3
0.642, 1.146e-3
0.643, 1.146e-3
0.644, 1.150e-3
0.645, 1.152e-3
0.646, 1.151e-3
0.647, 1.155e-3
0.648, 1.157e-3
0.649, 1.157e-3
0.650, 1.159e-3
0.651, 1.163e-3
0.652, 1.164e-3
0.653, 1.166e-3
0.654, 1.169e-3
0.655, 1.170e-3
0.656, 1.168e-3
0.657, 1.171e-3
0.658, 1.173e-3
0.659, 1.174e-3
0.660, 1.178e-3
0.661, 1.182e-3
0.662, 1.181e-3
0.663, 1.182e-3
0.664, 1.184e-3
0.665, 1.185e-3
0.666, 1.184e-3
0.667, 1.188e-3
0.668, 1.192e-3
0.669, 1.191e-3
0.670, 1.193e-3
0.671, 1.195e-3
0.672, 1.194e-3
0.673, 1.194e-3
0.674, 1.198e-3
0.675, 1.198e-3
0.676, 1.198e-3
0.677, 1.200e-3
0.678, 1.204e-3
0.679, 1.204e-3
0.680, 1.206e-3
0.681, 1.208e-3
0.682, 1.208e-3
0.683, 1.211e-3
0.684, 1.215e-3
0.685, 1.217e-3
0.686, 1.217e-3
0.687, 1.219e-3
0.688, 1.221e-3
0.689, 1.221e-3
0.690, 1.222e-3
0.691, 1.224e-3
0.692, 1.221e-3
0.693, 1.221e-3
0.694, 1.226e-3
0.695, 1.229e-3
0.696, 1.230e-3
0.697, 1.230e-3
0.698, 1.229e-3
0.699, 1.227e-3
0.700, 1.229e-3
0.701, 1.232e-3
0.702, 1.234e-3
0.703, 1.234e-3
0.704, 1.236e-3
0.705, 1.237e-3
0.706, 1.237e-3
0.707, 1.239e-3
0.708, 1.241e-3
0.709, 1.243e-3
0.710, 1.242e-3
0.711, 1.244e-3
0.712, 1.243e-3
0.713, 1.246e-3
0.714, 1.248e-3
0.715, 1.247e-3
0.716, 1.244e-3
0.717, 1.244e-3
0.718, 1.246e-3
0.719, 1.247e-3
0.720, 1.250e-3
0.721, 1.254e-3
0.722, 1.256e-3
0.723, 1.256e-3
0.724, 1.257e-3
0.725, 1.258e-3
0.726, 1.259e-3
0.727, 1.258e-3
0.728, 1.260e-3
0.729, 1.260e-3
0.730, 1.262e-3
0.731, 1.261e-3
0.732, 1.261e-3
0.733, 1.261e-3
0.734, 1.263e-3
0.735, 1.267e-3
0.736, 1.266e-3
0.737, 1.269e-3
0.738, 1.269e-3
0.739, 1.269e-3
0.740, 1.270e-3
0.741, 1.272e-3
0.742, 1.273e-3
0.743, 1.273e-3
0.744, 1.272e-3
0.745, 1.271e-3
0.746, 1.268e-3
0.747, 1.270e-3
0.748, 1.275e-3
0.749, 1.277e-3
0.750, 1.277e-3
0.751, 1.277e-3
0.752, 1.278e-3
0.753, 1.277e-3
0.754, 1.277e-3
0.755, 1.277e-3
0.756, 1.278e-3
0.757, 1.280e-3
0.758, 1.283e-3
0.759, 1.281e-3
0.760, 1.278e-3
0.761, 1.281e-3
0.762, 1.282e-3
0.763, 1.285e-3
0.764, 1.288e-3
0.765, 1.289e-3
0.766, 1.284e-3
0.767, 1.283e-3
0.768, 1.284e-3
0.769, 1.286e-3
0.770, 1.288e-3
0.771, 1.289e-3
0.772, 1.288e-3
0.773, 1.287e-3
0.774, 1.288e-3
0.775, 1.288e-3
0.776, 1.290e-3
0.777, 1.289e-3
0.778, 1.293e-3
0.779, 1.293e-3
0.780, 1.296e-3
0.781, 1.295e-3
0.782, 1.294e-3
0.783, 1.291e-3
0.784, 1.290e-3
0.785, 1.288e-3
0.786, 1.292e-3
0.787, 1.294e-3
0.788, 1.298e-3
0.789, 1.298e-3
0.790, 1.297e-3
0.791, 1.299e-3
0.792, 1.299e-3
0.793, 1.300e-3
0.794, 1.301e-3
0.795, 1.303e-3
0.796, 1.301e-3
0.797, 1.303e-3
0.798, 1.303e-3
0.799, 1.305e-3
0.800, 1.305e-3
0.801, 1.307e-3
0.802, 1.305e-3
0.803, 1.305e-3
0.804, 1.307e-3
0.805, 1.307e-3
0.806, 1.307e-3
0.807, 1.308e-3
0.808, 1.309e-3
0.809, 1.309e-3
0.810, 1.311e-3
0.811, 1.311e-3
0.812, 1.309e-3
0.813, 1.306e-3
0.814, 1.308e-3
0.815, 1.310e-3
0.816, 1.308e-3
0.817, 1.312e-3
0.818, 1.311e-3
0.819, 1.312e-3
0.820, 1.314e-3
0.821, 1.317e-3
0.822, 1.315e-3
0.823, 1.314e-3
0.824, 1.313e-3
0.825, 1.317e-3
0.826, 1.313e-3
0.827, 1.316e-3
0.828, 1.319e-3
0.829, 1.318e-3
0.830, 1.321e-3
0.831, 1.323e-3
0.832, 1.323e-3
0.833, 1.319e-3
0.834, 1.320e-3
0.835, 1.321e-3
0.836, 1.321e-3
0.837, 1.320e-3
0.838, 1.322e-3
0.839, 1.322e-3
0.840, 1.323e-3
0.841, 1.323e-3
0.842, 1.321e-3
0.843, 1.322e-3
0.844, 1.325e-3
0.845, 1.329e-3
0.846, 1.328e-3
0.847, 1.328e-3
0.848, 1.329e-3
0.849, 1.327e-3
0.850, 1.327e-3
0.851, 1.328e-3
0.852, 1.329e-3
0.853, 1.329e-3
0.854, 1.331e-3
0.855, 1.331e-3
0.856, 1.330e-3
0.857, 1.329e-3
0.858, 1.331e-3
0.859, 1.329e-3
0.860, 1.329e-3
0.861, 1.332e-3
0.862, 1.333e-3
0.863, 1.332e-3
0.864, 1.330e-3
0.865, 1.332e-3
0.866, 1.330e-3
0.867, 1.331e-3
0.868, 1.332e-3
0.869, 1.334e-3
0.870, 1.332e-3
0.871, 1.331e-3
0.872, 1.332e-3
0.873, 1.335e-3
0.874, 1.335e-3
0.875, 1.338e-3
0.876, 1.337e-3
0.877, 1.336e-3
0.878, 1.338e-3
0.879, 1.337e-3
0.880, 1.337e-3
0.881, 1.338e-3
0.882, 1.342e-3
0.883, 1.342e-3
0.884, 1.343e-3
0.885, 1.342e-3
0.886, 1.340e-3
0.887, 1.340e-3
0.888, 1.342e-3
0.889, 1.347e-3
0.890, 1.346e-3
0.891, 1.346e-3
0.892, 1.345e-3
0.893, 1.344e-3
0.894, 1.343e-3
0.895, 1.344e-3
0.896, 1.343e-3
0.897, 1.342e-3
0.898, 1.344e-3
0.899, 1.343e-3
0.900, 1.341e-3
0.901, 1.341e-3
0.902, 1.345e-3
0.903, 1.346e-3
0.904, 1.347e-3
0.905, 1.347e-3
0.906, 1.347e-3
0.907, 1.348e-3
0.908, 1.353e-3
0.909, 1.356e-3
0.910, 1.353e-3
0.911, 1.351e-3
0.912, 1.347e-3
0.913, 1.348e-3
0.914, 1.349e-3
0.915, 1.352e-3
0.916, 1.349e-3
0.917, 1.349e-3
0.918, 1.350e-3
0.919, 1.351e-3
0.920, 1.350e-3
0.921, 1.351e-3
0.922, 1.353e-3
0.923, 1.351e-3
0.924, 1.353e-3
0.925, 1.350e-3
0.926, 1.352e-3
0.927, 1.352e-3
0.928, 1.353e-3
0.929, 1.353e-3
0.930, 1.353e-3
0.931, 1.353e-3
0.932, 1.355e-3
0.933, 1.357e-3
0.934, 1.357e-3
0.935, 1.357e-3
0.936, 1.355e-3
0.937, 1.356e-3
0.938, 1.356e-3
0.939, 1.359e-3
0.940, 1.360e-3
0.941, 1.360e-3
0.942, 1.361e-3
0.943, 1.358e-3
0.944, 1.356e-3
0.945, 1.357e-3
0.946, 1.361e-3
0.947, 1.363e-3
0.948, 1.366e-3
0.949, 1.362e-3
0.950, 1.362e-3
0.951, 1.361e-3
0.952, 1.361e-3
0.953, 1.359e-3
0.954, 1.360e-3
0.955, 1.362e-3
0.956, 1.362e-3
0.957, 1.360e-3
0.958, 1.358e-3
0.959, 1.359e-3
0.960, 1.358e-3
0.961, 1.361e-3
0.962, 1.365e-3
0.963, 1.366e-3
0.964, 1.363e-3
0.965, 1.364e-3
0.966, 1.362e-3
0.967, 1.363e-3
0.968, 1.369e-3
0.969, 1.372e-3
0.970, 1.370e-3
0.971, 1.365e-3
0.972, 1.366e-3
0.973, 1.366e-3
0.974, 1.369e-3
0.975, 1.369e-3
0.976, 1.368e-3
0.977, 1.367e-3
0.978, 1.369e-3
0.979, 1.370e-3
0.980, 1.367e-3
0.981, 1.366e-3
0.982, 1.367e-3
0.983, 1.369e-3
0.984, 1.369e-3
0.985, 1.373e-3
0.986, 1.373e-3
0.987, 1.373e-3
0.988, 1.373e-3
0.989, 1.376e-3
0.990, 1.374e-3
0.991, 1.372e-3
0.992, 1.370e-3
0.993, 1.369e-3
0.994, 1.372e-3
0.995, 1.372e-3
0.996, 1.375e-3
0.997, 1.373e-3
0.998, 1.373e-3
0.999, 1.372e-3
1.000, 1.372e-3
1.001, 1.370e-3
1.002, 1.372e-3
1.003, 1.372e-3
1.004, 1.372e-3
1.005, 1.373e-3
1.006, 1.372e-3
1.007, 1.371e-3
1.008, 1.371e-3
1.009, 1.375e-3
1.010, 1.376e-3
1.011, 1.376e-3
1.012, 1.376e-3
1.013, 1.377e-3
1.014, 1.374e-3
1.015, 1.377e-3
1.016, 1.379e-3
1.017, 1.380e-3
1.018, 1.383e-3
1.019, 1.384e-3
1.020, 1.383e-3
1.021, 1.377e-3
1.022, 1.378e-3
1.023, 1.379e-3
1.024, 1.381e-3
1.025, 1.382e-3
1.026, 1.384e-3
1.027, 1.380e-3
1.028, 1.380e-3
1.029, 1.382e-3
1.030, 1.381e-3
1.031, 1.381e-3
1.032, 1.381e-3
1.033, 1.383e-3
1.034, 1.382e-3
1.035, 1.384e-3
1.036, 1.391e-3
1.037, 1.391e-3
1.038, 1.386e-3
1.039, 1.386e-3
1.040, 1.383e-3
1.041, 1.383e-3
1.042, 1.384e-3
1.043, 1.387e-3
1.044, 1.389e-3
1.045, 1.386e-3
1.046, 1.386e-3
1.047, 1.385e-3
1.048, 1.385e-3
1.049, 1.387e-3
1.050, 1.388e-3
1.051, 1.386e-3
1.052, 1.386e-3
1.053, 1.382e-3
1.054, 1.381e-3
1.055, 1.383e-3
1.056, 1.386e-3
1.057, 1.386e-3
1.058, 1.384e-3
1.059, 1.384e-3
1.060, 1.385e-3
1.061, 1.386e-3
1.062, 1.386e-3
1.063, 1.387e-3
1.064, 1.385e-3
1.065, 1.388e-3
1.066, 1.387e-3
1.067, 1.389e-3
1.068, 1.390e-3
1.069, 1.391e-3
1.070, 1.388e-3
1.071, 1.388e-3
1.072, 1.388e-3
1.073, 1.388e-3
1.074, 1.386e-3
1.075, 1.389e-3
1.076, 1.392e-3
1.077, 1.391e-3
1.078, 1.393e-3
1.079, 1.392e-3
1.080, 1.391e-3
1.081, 1.389e-3
1.082, 1.392e-3
1.083, 1.396e-3
1.084, 1.396e-3
1.085, 1.396e-3
1.086, 1.399e-3
1.087, 1.396e-3
1.088, 1.393e-3
1.089, 1.392e-3
1.090, 1.391e-3
1.091, 1.395e-3
1.092, 1.397e-3
1.093, 1.399e-3
1.094, 1.396e-3
1.095, 1.395e-3
1.096, 1.395e-3
1.097, 1.396e-3
1.098, 1.396e-3
1.099, 1.398e-3
1.100, 1.396e-3
1.101, 1.395e-3
1.102, 1.396e-3
1.103, 1.395e-3
1.104, 1.393e-3
1.105, 1.394e-3
1.106, 1.397e-3
1.107, 1.396e-3
1.108, 1.396e-3
1.109, 1.396e-3
1.110, 1.395e-3
1.111, 1.394e-3
1.112, 1.397e-3
1.113, 1.399e-3
1.114, 1.398e-3
1.115, 1.397e-3
1.116, 1.394e-3
1.117, 1.394e-3
1.118, 1.394e-3
1.119, 1.399e-3
1.120, 1.401e-3
1.121, 1.401e-3
1.122, 1.399e-3
1.123, 1.400e-3
1.124, 1.397e-3
1.125, 1.398e-3
1.126, 1.400e-3
1.127, 1.401e-3
1.128, 1.401e-3
1.129, 1.401e-3
1.130, 1.402e-3
1.131, 1.401e-3
1.132, 1.403e-3
1.133, 1.404e-3
1.134, 1.407e-3
1.135, 1.404e-3
1.136, 1.405e-3
1.137, 1.405e-3
1.138, 1.406e-3
1.139, 1.406e-3
1.140, 1.407e-3
1.141, 1.405e-3
1.142, 1.406e-3
1.143, 1.406e-3
1.144, 1.405e-3
1.145, 1.408e-3
1.146, 1.407e-3
1.147, 1.408e-3
1.148, 1.407e-3
1.149, 1.410e-3
1.150, 1.409e-3
1.151, 1.407e-3
1.152, 1.410e-3
1.153, 1.412e-3
1.154, 1.410e-3
1.155, 1.407e-3
1.156, 1.408e-3
1.157, 1.409e-3
1.158, 1.412e-3
1.159, 1.415e-3
1.160, 1.418e-3
1.161, 1.413e-3
1.162, 1.411e-3
1.163, 1.413e-3
1.164, 1.413e-3
1.165, 1.413e-3
1.166, 1.415e-3
1.167, 1.412e-3
1.168, 1.409e-3
1.169, 1.409e-3
1.170, 1.408e-3
1.171, 1.410e-3
1.172, 1.411e-3
1.173, 1.416e-3
1.174, 1.415e-3
1.175, 1.415e-3
1.176, 1.414e-3
1.177, 1.416e-3
1.178, 1.416e-3
1.179, 1.415e-3
1.180, 1.415e-3
1.181, 1.413e-3
1.182, 1.413e-3
1.183, 1.413e-3
1.184, 1.414e-3
1.185, 1.411e-3
1.186, 1.412e-3
1.187, 1.412e-3
1.188, 1.415e-3
1.189, 1.417e-3
1.190, 1.417e-3
1.191, 1.415e-3
1.192, 1.413e-3
1.193, 1.415e-3
1.194, 1.418e-3
1.195, 1.419e-3
1.196, 1.418e-3
1.197, 1.418e-3
1.198, 1.415e-3
1.199, 1.417e-3
1.200, 1.417e-3
1.201, 1.415e-3
1.202, 1.414e-3
1.203, 1.415e-3
1.204, 1.417e-3
1.205, 1.418e-3
1.206, 1.421e-3
1.207, 1.419e-3
1.208, 1.418e-3
1.209, 1.416e-3
1.210, 1.418e-3
1.211, 1.418e-3
1.212, 1.420e-3
1.213, 1.421e-3
1.214, 1.419e-3
1.215, 1.416e-3
1.216, 1.417e-3
1.217, 1.420e-3
1.218, 1.415e-3
1.219, 1.410e-3
1.220, 1.418e-3
1.221, 1.423e-3
1.222, 1.420e-3
1.223, 1.419e-3
1.224, 1.417e-3
1.225, 1.418e-3
1.226, 1.420e-3
1.227, 1.422e-3
1.228, 1.419e-3
1.229, 1.417e-3
1.230, 1.418e-3
1.231, 1.420e-3
1.232, 1.423e-3
1.233, 1.423e-3
1.234, 1.420e-3
1.235, 1.421e-3
1.236, 1.422e-3
1.237, 1.419e-3
1.238, 1.421e-3
1.239, 1.424e-3
1.240, 1.428e-3
1.241, 1.427e-3
1.242, 1.422e-3
1.243, 1.422e-3
1.244, 1.422e-3
1.245, 1.424e-3
1.246, 1.425e-3
1.247, 1.425e-3
1.248, 1.422e-3
1.249, 1.425e-3
1.250, 1.424e-3
1.251, 1.424e-3
1.252, 1.423e-3
1.253, 1.425e-3
1.254, 1.426e-3
1.255, 1.429e-3
1.256, 1.433e-3
1.257, 1.433e-3
1.258, 1.432e-3
1.259, 1.430e-3
1.260, 1.432e-3
1.261, 1.430e-3
1.262, 1.428e-3
1.263, 1.425e-3
1.264, 1.427e-3
1.265, 1.429e-3
1.266, 1.431e-3
1.267, 1.431e-3
1.268, 1.428e-3
1.269, 1.427e-3
1.270, 1.429e-3
1.271, 1.432e-3
1.272, 1.428e-3
1.273, 1.429e-3
1.274, 1.426e-3
1.275, 1.427e-3
1.276, 1.424e-3
1.277, 1.425e-3
1.278, 1.424e-3
1.279, 1.425e-3
1.280, 1.427e-3
1.281, 1.428e-3
1.282, 1.428e-3
1.283, 1.430e-3
1.284, 1.430e-3
1.285, 1.428e-3
1.286, 1.426e-3
1.287, 1.424e-3
1.288, 1.425e-3
1.289, 1.426e-3
1.290, 1.430e-3
1.291, 1.429e-3
1.292, 1.424e-3
1.293, 1.423e-3
1.294, 1.427e-3
1.295, 1.430e-3
1.296, 1.433e-3
1.297, 1.433e-3
1.298, 1.431e-3
1.299, 1.428e-3
1.300, 1.430e-3
1.301, 1.433e-3
1.302, 1.433e-3
1.303, 1.438e-3
1.304, 1.436e-3
1.305, 1.435e-3
1.306, 1.433e-3
1.307, 1.434e-3
1.308, 1.433e-3
1.309, 1.434e-3
1.310, 1.435e-3
1.311, 1.433e-3
1.312, 1.432e-3
1.313, 1.431e-3
1.314, 1.434e-3
1.315, 1.435e-3
1.316, 1.437e-3
1.317, 1.439e-3
1.318, 1.435e-3
1.319, 1.432e-3
1.320, 1.436e-3
1.321, 1.436e-3
1.322, 1.434e-3
1.323, 1.434e-3
1.324, 1.433e-3
1.325, 1.434e-3
1.326, 1.432e-3
1.327, 1.434e-3
1.328, 1.433e-3
1.329, 1.435e-3
1.330, 1.437e-3
1.331, 1.439e-3
1.332, 1.438e-3
1.333, 1.440e-3
1.334, 1.438e-3
1.335, 1.435e-3
1.336, 1.436e-3
1.337, 1.439e-3
1.338, 1.442e-3
1.339, 1.440e-3
1.340, 1.440e-3
1.341, 1.436e-3
1.342, 1.435e-3
1.343, 1.435e-3
1.344, 1.440e-3
1.345, 1.442e-3
1.346, 1.444e-3
1.347, 1.443e-3
1.348, 1.439e-3
1.349, 1.437e-3
1.350, 1.439e-3
1.351, 1.443e-3
1.352, 1.442e-3
1.353, 1.443e-3
1.354, 1.443e-3
1.355, 1.439e-3
1.356, 1.436e-3
1.357, 1.439e-3
1.358, 1.439e-3
1.359, 1.444e-3
1.360, 1.446e-3
1.361, 1.445e-3
1.362, 1.441e-3
1.363, 1.439e-3
1.364, 1.439e-3
1.365, 1.438e-3
1.366, 1.441e-3
1.367, 1.443e-3
1.368, 1.443e-3
1.369, 1.440e-3
1.370, 1.443e-3
1.371, 1.442e-3
1.372, 1.445e-3
1.373, 1.445e-3
1.374, 1.445e-3
1.375, 1.442e-3
1.376, 1.443e-3
1.377, 1.445e-3
1.378, 1.447e-3
1.379, 1.447e-3
1.380, 1.446e-3
1.381, 1.447e-3
1.382, 1.444e-3
1.383, 1.445e-3
1.384, 1.446e-3
1.385, 1.445e-3
1.386, 1.442e-3
1.387, 1.446e-3
1.388, 1.445e-3
1.389, 1.447e-3
1.390, 1.446e-3
1.391, 1.446e-3
1.392, 1.445e-3
1.393, 1.446e-3
1.394, 1.448e-3
1.395, 1.445e-3
1.396, 1.445e-3
1.397, 1.445e-3
1.398, 1.446e-3
1.399, 1.445e-3
1.400, 1.449e-3
1.401, 1.451e-3
1.402, 1.452e-3
1.403, 1.451e-3
1.404, 1.450e-3
1.405, 1.449e-3
1.406, 1.449e-3
1.407, 1.452e-3
1.408, 1.449e-3
1.409, 1.449e-3
1.410, 1.450e-3
1.411, 1.451e-3
1.412, 1.449e-3
1.413, 1.451e-3
1.414, 1.451e-3
1.415, 1.451e-3
1.416, 1.448e-3
1.417, 1.450e-3
1.418, 1.449e-3
1.419, 1.448e-3
1.420, 1.450e-3
1.421, 1.451e-3
1.422, 1.450e-3
1.423, 1.448e-3
1.424, 1.450e-3
1.425, 1.449e-3
1.426, 1.452e-3
1.427, 1.453e-3
1.428, 1.453e-3
1.429, 1.448e-3
1.430, 1.448e-3
1.431, 1.450e-3
1.432, 1.454e-3
1.433, 1.452e-3
1.434, 1.450e-3
1.435, 1.448e-3
1.436, 1.448e-3
1.437, 1.450e-3
1.438, 1.450e-3
1.439, 1.450e-3
1.440, 1.449e-3
1.441, 1.449e-3
1.442, 1.447e-3
1.443, 1.449e-3
1.444, 1.448e-3
1.445, 1.448e-3
1.446, 1.447e-3
1.447, 1.449e-3
1.448, 1.448e-3
1.449, 1.449e-3
1.450, 1.451e-3
1.451, 1.452e-3
1.452, 1.452e-3
1.453, 1.451e-3
1.454, 1.454e-3
1.455, 1.454e-3
1.456, 1.457e-3
1.457, 1.457e-3
1.458, 1.457e-3
1.459, 1.456e-3
1.460, 1.456e-3
1.461, 1.457e-3
1.462, 1.457e-3
1.463, 1.457e-3
1.464, 1.456e-3
1.465, 1.458e-3
1.466, 1.455e-3
1.467, 1.455e-3
1.468, 1.456e-3
1.469, 1.461e-3
1.470, 1.463e-3
1.471, 1.462e-3
1.472, 1.460e-3
1.473, 1.457e-3
1.474, 1.457e-3
1.475, 1.457e-3
1.476, 1.458e-3
1.477, 1.460e-3
1.478, 1.461e-3
1.479, 1.456e-3
1.480, 1.459e-3
1.481, 1.460e-3
1.482, 1.463e-3
1.483, 1.463e-3
1.484, 1.461e-3
1.485, 1.458e-3
1.486, 1.456e-3
1.487, 1.455e-3
1.488, 1.459e-3
1.489, 1.460e-3
1.490, 1.459e-3
1.491, 1.458e-3
1.492, 1.456e-3
1.493, 1.458e-3
1.494, 1.458e-3
1.495, 1.459e-3
1.496, 1.457e-3
1.497, 1.459e-3
1.498, 1.460e-3
1.499, 1.461e-3
1.500, 1.461e-3
1.501, 1.462e-3
1.502, 1.461e-3
1.503, 1.460e-3
1.504, 1.462e-3
1.505, 1.461e-3
1.506, 1.462e-3
1.507, 1.462e-3
1.508, 1.464e-3
1.509, 1.460e-3
1.510, 1.460e-3
1.511, 1.462e-3
1.512, 1.465e-3
1.513, 1.465e-3
1.514, 1.465e-3
1.515, 1.455e-3
1.516, 1.455e-3
1.517, 1.463e-3
1.518, 1.465e-3
1.519, 1.465e-3
1.520, 1.461e-3
1.521, 1.460e-3
1.522, 1.462e-3
1.523, 1.468e-3
1.524, 1.471e-3
1.525, 1.468e-3
1.526, 1.463e-3
1.527, 1.461e-3
1.528, 1.466e-3
1.529, 1.466e-3
1.530, 1.467e-3
1.531, 1.468e-3
1.532, 1.468e-3
1.533, 1.467e-3
1.534, 1.467e-3
1.535, 1.466e-3
1.536, 1.468e-3
1.537, 1.470e-3
1.538, 1.470e-3
1.539, 1.466e-3
1.540, 1.465e-3
1.541, 1.467e-3
1.542, 1.466e-3
1.543, 1.468e-3
1.544, 1.466e-3
1.545, 1.470e-3
1.546, 1.471e-3
1.547, 1.472e-3
1.548, 1.471e-3
1.549, 1.469e-3
1.550, 1.468e-3
1.551, 1.470e-3
1.552, 1.472e-3
1.553, 1.471e-3
1.554, 1.471e-3
1.555, 1.470e-3
1.556, 1.466e-3
1.557, 1.458e-3
1.558, 1.465e-3
1.559, 1.470e-3
1.560, 1.472e-3
1.561, 1.473e-3
1.562, 1.474e-3
1.563, 1.469e-3
1.564, 1.468e-3
1.565, 1.469e-3
1.566, 1.469e-3
1.567, 1.467e-3
1.568, 1.466e-3
1.569, 1.466e-3
1.570, 1.467e-3
1.571, 1.470e-3
1.572, 1.470e-3
1.573, 1.472e-3
1.574, 1.469e-3
1.575, 1.474e-3
1.576, 1.474e-3
1.577, 1.474e-3
1.578, 1.474e-3
1.579, 1.473e-3
1.580, 1.471e-3
1.581, 1.471e-3
1.582, 1.471e-3
1.583, 1.470e-3
1.584, 1.472e-3
1.585, 1.470e-3
1.586, 1.471e-3
1.587, 1.474e-3
1.588, 1.477e-3
1.589, 1.476e-3
1.590, 1.480e-3
1.591, 1.482e-3
1.592, 1.479e-3
1.593, 1.476e-3
1.594, 1.474e-3
1.595, 1.476e-3
1.596, 1.473e-3
1.597, 1.478e-3
1.598, 1.480e-3
1.599, 1.480e-3
1.600, 1.477e-3
1.601, 1.479e-3
1.602, 1.479e-3
1.603, 1.477e-3
1.604, 1.476e-3
1.605, 1.476e-3
1.606, 1.477e-3
1.607, 1.476e-3
1.608, 1.478e-3
1.609, 1.475e-3
1.610, 1.478e-3
1.611, 1.480e-3
1.612, 1.483e-3
1.613, 1.481e-3
1.614, 1.481e-3
1.615, 1.480e-3
1.616, 1.477e-3
1.617, 1.476e-3
1.618, 1.476e-3
1.619, 1.476e-3
1.620, 1.474e-3
1.621, 1.476e-3
1.622, 1.475e-3
1.623, 1.478e-3
1.624, 1.480e-3
1.625, 1.483e-3
1.626, 1.482e-3
1.627, 1.481e-3
1.628, 1.483e-3
1.629, 1.481e-3
1.630, 1.480e-3
1.631, 1.480e-3
1.632, 1.481e-3
1.633, 1.480e-3
1.634, 1.481e-3
1.635, 1.481e-3
1.636, 1.481e-3
1.637, 1.484e-3
1.638, 1.487e-3
1.639, 1.487e-3
1.640, 1.482e-3
1.641, 1.481e-3
1.642, 1.480e-3
1.643, 1.483e-3
1.644, 1.479e-3
1.645, 1.481e-3
1.646, 1.483e-3
1.647, 1.485e-3
1.648, 1.489e-3
1.649, 1.489e-3
1.650, 1.486e-3
1.651, 1.484e-3
1.652, 1.486e-3
1.653, 1.484e-3
1.654, 1.484e-3
1.655, 1.485e-3
1.656, 1.486e-3
1.657, 1.486e-3
1.658, 1.490e-3
1.659, 1.491e-3
1.660, 1.492e-3
1.661, 1.491e-3
1.662, 1.491e-3
1.663, 1.489e-3
1.664, 1.487e-3
1.665, 1.489e-3
1.666, 1.489e-3
1.667, 1.490e-3
1.668, 1.490e-3
1.669, 1.491e-3
1.670, 1.493e-3
1.671, 1.495e-3
1.672, 1.497e-3
1.673, 1.496e-3
1.674, 1.497e-3
1.675, 1.496e-3
1.676, 1.496e-3
1.677, 1.495e-3
1.678, 1.498e-3
1.679, 1.497e-3
1.680, 1.497e-3
1.681, 1.498e-3
1.682, 1.500e-3
1.683, 1.502e-3
1.684, 1.501e-3
1.685, 1.505e-3
1.686, 1.506e-3
1.687, 1.506e-3
1.688, 1.506e-3
1.689, 1.509e-3
1.690, 1.509e-3
1.691, 1.506e-3
1.692, 1.508e-3
1.693, 1.512e-3
1.694, 1.512e-3
1.695, 1.513e-3
1.696, 1.516e-3
1.697, 1.516e-3
1.698, 1.521e-3
1.699, 1.523e-3
1.700, 1.524e-3
1.701, 1.523e-3
1.702, 1.528e-3
1.703, 1.529e-3
1.704, 1.529e-3
1.705, 1.530e-3
1.706, 1.532e-3
1.707, 1.533e-3
1.708, 1.536e-3
1.709, 1.539e-3
1.710, 1.541e-3
1.711, 1.543e-3
1.712, 1.546e-3
1.713, 1.550e-3
1.714, 1.553e-3
1.715, 1.557e-3
1.716, 1.558e-3
1.717, 1.560e-3
1.718, 1.560e-3
1.719, 1.567e-3
1.720, 1.572e-3
1.721, 1.575e-3
1.722, 1.578e-3
1.723, 1.580e-3
1.724, 1.582e-3
1.725, 1.584e-3
1.726, 1.588e-3
1.727, 1.590e-3
1.728, 1.592e-3
1.729, 1.597e-3
1.730, 1.600e-3
1.731, 1.601e-3
1.732, 1.606e-3
1.733, 1.611e-3
1.734, 1.615e-3
1.735, 1.618e-3
1.736, 1.624e-3
1.737, 1.628e-3
1.738, 1.630e-3
1.739, 1.632e-3
1.740, 1.634e-3
1.741, 1.633e-3
1.742, 1.637e-3
1.743, 1.645e-3
1.744, 1.649e-3
1.745, 1.653e-3
1.746, 1.656e-3
1.747, 1.659e-3
1.748, 1.661e-3
1.749, 1.667e-3
1.750, 1.670e-3
1.751, 1.674e-3
1.752, 1.678e-3
1.753, 1.683e-3
1.754, 1.685e-3
1.755, 1.689e-3
1.756, 1.694e-3
1.757, 1.698e-3
1.758, 1.701e-3
1.759, 1.706e-3
1.760, 1.712e-3
1.761, 1.713e-3
1.762, 1.719e-3
1.763, 1.722e-3
1.764, 1.726e-3
1.765, 1.730e-3
1.766, 1.738e-3
1.767, 1.742e-3
1.768, 1.743e-3
1.769, 1.745e-3
1.770, 1.749e-3
1.771, 1.753e-3
1.772, 1.758e-3
1.773, 1.766e-3
1.774, 1.768e-3
1.775, 1.771e-3
1.776, 1.775e-3
1.777, 1.779e-3
1.778, 1.781e-3
1.779, 1.788e-3
1.780, 1.792e-3
1.781, 1.794e-3
1.782, 1.799e-3
1.783, 1.804e-3
1.784, 1.808e-3
1.785, 1.811e-3
1.786, 1.817e-3
1.787, 1.820e-3
1.788, 1.824e-3
1.789, 1.829e-3
1.790, 1.834e-3
1.791, 1.836e-3
1.792, 1.842e-3
1.793, 1.849e-3
1.794, 1.852e-3
1.795, 1.854e-3
1.796, 1.859e-3
1.797, 1.865e-3
1.798, 1.867e-3
1.799, 1.874e-3
1.800, 1.880e-3
1.801, 1.884e-3
1.802, 1.886e-3
1.803, 1.891e-3
1.804, 1.896e-3
1.805, 1.900e-3
1.806, 1.905e-3
1.807, 1.909e-3
1.808, 1.911e-3
1.809, 1.917e-3
1.810, 1.926e-3
1.811, 1.929e-3
1.812, 1.934e-3
1.813, 1.941e-3
1.814, 1.946e-3
1.815, 1.949e-3
1.816, 1.957e-3
1.817, 1.962e-3
1.818, 1.964e-3
1.819, 1.968e-3
1.820, 1.974e-3
1.821, 1.978e-3
1.822, 1.983e-3
1.823, 1.990e-3
1.824, 1.992e-3
1.825, 1.995e-3
1.826, 2.002e-3
1.827, 2.010e-3
1.828, 2.012e-3
1.829, 2.018e-3
1.830, 2.025e-3
1.831, 2.028e-3
1.832, 2.031e-3
1.833, 2.037e-3
1.834, 2.041e-3
1.835, 2.043e-3
1.836, 2.052e-3
1.837, 2.058e-3
1.838, 2.062e-3
1.839, 2.067e-3
1.840, 2.075e-3
1.841, 2.078e-3
1.842, 2.083e-3
1.843, 2.091e-3
1.844, 2.097e-3
1.845, 2.100e-3
1.846, 2.106e-3
1.847, 2.112e-3
1.848, 2.112e-3
1.849, 2.119e-3
1.850, 2.127e-3
1.851, 2.134e-3
1.852, 2.138e-3
1.853, 2.146e-3
1.854, 2.151e-3
1.855, 2.154e-3
1.856, 2.160e-3
1.857, 2.167e-3
1.858, 2.170e-3
1.859, 2.176e-3
1.860, 2.184e-3
1.861, 2.188e-3
1.862, 2.190e-3
1.863, 2.198e-3
1.864, 2.206e-3
1.865, 2.210e-3
1.866, 2.218e-3
1.867, 2.225e-3
1.868, 2.230e-3
1.869, 2.235e-3
1.870, 2.244e-3
1.871, 2.247e-3
1.872, 2.250e-3
1.873, 2.257e-3
1.874, 2.263e-3
1.875, 2.267e-3
1.876, 2.276e-3
1.877, 2.284e-3
1.878, 2.287e-3
1.879, 2.292e-3
1.880, 2.299e-3
1.881, 2.303e-3
1.882, 2.306e-3
1.883, 2.317e-3
1.884, 2.324e-3
1.885, 2.328e-3
1.886, 2.333e-3
1.887, 2.341e-3
1.888, 2.344e-3
1.889, 2.350e-3
1.890, 2.361e-3
1.891, 2.366e-3
1.892, 2.371e-3
1.893, 2.379e-3
1.894, 2.386e-3
1.895, 2.388e-3
1.896, 2.395e-3
1.897, 2.404e-3
1.898, 2.407e-3
1.899, 2.413e-3
1.900, 2.422e-3
1.901, 2.426e-3
1.902, 2.430e-3
1.903, 2.440e-3
1.904, 2.448e-3
1.905, 2.451e-3
1.906, 2.457e-3
1.907, 2.467e-3
1.908, 2.471e-3
1.909, 2.476e-3
1.910, 2.484e-3
1.911, 2.490e-3
1.912, 2.494e-3
1.913, 2.501e-3
1.914, 2.510e-3
1.915, 2.512e-3
1.916, 2.520e-3
1.917, 2.529e-3
1.918, 2.535e-3
1.919, 2.539e-3
1.920, 2.549e-3
1.921, 2.555e-3
1.922, 2.559e-3
1.923, 2.568e-3
1.924, 2.578e-3
1.925, 2.582e-3
1.926, 2.587e-3
1.927, 2.596e-3
1.928, 2.598e-3
1.929, 2.603e-3
1.930, 2.614e-3
1.931, 2.621e-3
1.932, 2.625e-3
1.933, 2.633e-3
1.934, 2.642e-3
1.935, 2.646e-3
1.936, 2.652e-3
1.937, 2.661e-3
1.938, 2.666e-3
1.939, 2.672e-3
1.940, 2.682e-3
1.941, 2.686e-3
1.942, 2.688e-3
1.943, 2.697e-3
1.944, 2.706e-3
1.945, 2.711e-3
1.946, 2.717e-3
1.947, 2.727e-3
1.948, 2.731e-3
1.949, 2.736e-3
1.950, 2.745e-3
1.951, 2.754e-3
1.952, 2.758e-3
1.953, 2.766e-3
1.954, 2.775e-3
1.955, 2.777e-3
1.956, 2.784e-3
1.957, 2.795e-3
1.958, 2.802e-3
1.959, 2.807e-3
1.960, 2.814e-3
1.961, 2.823e-3
1.962, 2.829e-3
1.963, 2.836e-3
1.964, 2.846e-3
1.965, 2.850e-3
1.966, 2.856e-3
1.967, 2.865e-3
1.968, 2.870e-3
1.969, 2.874e-3
1.970, 2.885e-3
1.971, 2.892e-3
1.972, 2.895e-3
1.973, 2.903e-3
1.974, 2.913e-3
1.975, 2.918e-3
1.976, 2.923e-3
1.977, 2.933e-3
1.978, 2.939e-3
1.979, 2.944e-3
1.980, 2.954e-3
1.981, 2.962e-3
1.982, 2.966e-3
1.983, 2.973e-3
1.984, 2.983e-3
1.985, 2.987e-3
1.986, 2.994e-3
1.987, 3.005e-3
1.988, 3.011e-3
1.989, 3.015e-3
1.990, 3.024e-3
1.991, 3.031e-3
1.992, 3.036e-3
1.993, 3.043e-3
1.994, 3.053e-3
1.995, 3.057e-3
1.996, 3.064e-3
1.997, 3.074e-3
1.998, 3.080e-3
1.999, 3.084e-3
