Dec. 11, 2018   21:00:05
Amperometric i-t Curve
File: r:\group-shared\andy\760_data\181211\181211_0-8v_wo3feooh_0-1mnacl_ph4_wgc.txt
Data Source:  Experiment
Instrument Model:  CHI760E
Header: 
Note: 

Init E (V) = 0.8
Sample Interval (s) = 2
Run Time (sec) = 5.4e+3
Quiet Time (sec) = 0
Sensitivity (A/V) = 0.001


Time/sec, Current/A

2.000e+0, 1.321e-3
4.000e+0, 1.318e-3
6.000e+0, 1.319e-3
8.000e+0, 1.317e-3
1.000e+1, 1.317e-3
1.200e+1, 1.317e-3
1.400e+1, 1.316e-3
1.600e+1, 1.316e-3
1.800e+1, 1.316e-3
2.000e+1, 1.316e-3
2.200e+1, 1.316e-3
2.400e+1, 1.317e-3
2.600e+1, 1.316e-3
2.800e+1, 1.316e-3
3.000e+1, 1.317e-3
3.200e+1, 1.317e-3
3.400e+1, 1.317e-3
3.600e+1, 1.317e-3
3.800e+1, 1.317e-3
4.000e+1, 1.318e-3
4.200e+1, 1.318e-3
4.400e+1, 1.316e-3
4.600e+1, 1.317e-3
4.800e+1, 1.318e-3
5.000e+1, 1.319e-3
5.200e+1, 1.319e-3
5.400e+1, 1.318e-3
5.600e+1, 1.317e-3
5.800e+1, 1.318e-3
6.000e+1, 1.318e-3
6.200e+1, 1.319e-3
6.400e+1, 1.319e-3
6.600e+1, 1.318e-3
6.800e+1, 1.320e-3
7.000e+1, 1.320e-3
7.200e+1, 1.319e-3
7.400e+1, 1.316e-3
7.600e+1, 1.317e-3
7.800e+1, 1.316e-3
8.000e+1, 1.317e-3
8.200e+1, 1.317e-3
8.400e+1, 1.317e-3
8.600e+1, 1.316e-3
8.800e+1, 1.316e-3
9.000e+1, 1.316e-3
9.200e+1, 1.316e-3
9.400e+1, 1.316e-3
9.600e+1, 1.317e-3
9.800e+1, 1.316e-3
1.000e+2, 1.315e-3
1.020e+2, 1.316e-3
1.040e+2, 1.316e-3
1.060e+2, 1.315e-3
1.080e+2, 1.316e-3
1.100e+2, 1.315e-3
1.120e+2, 1.315e-3
1.140e+2, 1.315e-3
1.160e+2, 1.314e-3
1.180e+2, 1.314e-3
1.200e+2, 1.315e-3
1.220e+2, 1.315e-3
1.240e+2, 1.315e-3
1.260e+2, 1.314e-3
1.280e+2, 1.314e-3
1.300e+2, 1.314e-3
1.320e+2, 1.314e-3
1.340e+2, 1.315e-3
1.360e+2, 1.315e-3
1.380e+2, 1.315e-3
1.400e+2, 1.315e-3
1.420e+2, 1.313e-3
1.440e+2, 1.314e-3
1.460e+2, 1.316e-3
1.480e+2, 1.316e-3
1.500e+2, 1.315e-3
1.520e+2, 1.315e-3
1.540e+2, 1.317e-3
1.560e+2, 1.316e-3
1.580e+2, 1.316e-3
1.600e+2, 1.316e-3
1.620e+2, 1.316e-3
1.640e+2, 1.316e-3
1.660e+2, 1.316e-3
1.680e+2, 1.317e-3
1.700e+2, 1.316e-3
1.720e+2, 1.317e-3
1.740e+2, 1.316e-3
1.760e+2, 1.316e-3
1.780e+2, 1.316e-3
1.800e+2, 1.317e-3
1.820e+2, 1.315e-3
1.840e+2, 1.316e-3
1.860e+2, 1.314e-3
1.880e+2, 1.313e-3
1.900e+2, 1.314e-3
1.920e+2, 1.315e-3
1.940e+2, 1.316e-3
1.960e+2, 1.314e-3
1.980e+2, 1.316e-3
2.000e+2, 1.315e-3
2.020e+2, 1.316e-3
2.040e+2, 1.315e-3
2.060e+2, 1.317e-3
2.080e+2, 1.317e-3
2.100e+2, 1.317e-3
2.120e+2, 1.317e-3
2.140e+2, 1.316e-3
2.160e+2, 1.317e-3
2.180e+2, 1.317e-3
2.200e+2, 1.316e-3
2.220e+2, 1.317e-3
2.240e+2, 1.317e-3
2.260e+2, 1.317e-3
2.280e+2, 1.316e-3
2.300e+2, 1.317e-3
2.320e+2, 1.317e-3
2.340e+2, 1.316e-3
2.360e+2, 1.315e-3
2.380e+2, 1.315e-3
2.400e+2, 1.315e-3
2.420e+2, 1.316e-3
2.440e+2, 1.315e-3
2.460e+2, 1.316e-3
2.480e+2, 1.316e-3
2.500e+2, 1.315e-3
2.520e+2, 1.315e-3
2.540e+2, 1.316e-3
2.560e+2, 1.315e-3
2.580e+2, 1.316e-3
2.600e+2, 1.316e-3
2.620e+2, 1.315e-3
2.640e+2, 1.315e-3
2.660e+2, 1.315e-3
2.680e+2, 1.315e-3
2.700e+2, 1.315e-3
2.720e+2, 1.315e-3
2.740e+2, 1.316e-3
2.760e+2, 1.316e-3
2.780e+2, 1.314e-3
2.800e+2, 1.315e-3
2.820e+2, 1.315e-3
2.840e+2, 1.314e-3
2.860e+2, 1.314e-3
2.880e+2, 1.314e-3
2.900e+2, 1.316e-3
2.920e+2, 1.315e-3
2.940e+2, 1.315e-3
2.960e+2, 1.314e-3
2.980e+2, 1.314e-3
3.000e+2, 1.315e-3
3.020e+2, 1.316e-3
3.040e+2, 1.314e-3
3.060e+2, 1.314e-3
3.080e+2, 1.314e-3
3.100e+2, 1.314e-3
3.120e+2, 1.314e-3
3.140e+2, 1.314e-3
3.160e+2, 1.314e-3
3.180e+2, 1.314e-3
3.200e+2, 1.315e-3
3.220e+2, 1.315e-3
3.240e+2, 1.315e-3
3.260e+2, 1.314e-3
3.280e+2, 1.314e-3
3.300e+2, 1.314e-3
3.320e+2, 1.314e-3
3.340e+2, 1.315e-3
3.360e+2, 1.314e-3
3.380e+2, 1.315e-3
3.400e+2, 1.314e-3
3.420e+2, 1.315e-3
3.440e+2, 1.315e-3
3.460e+2, 1.315e-3
3.480e+2, 1.314e-3
3.500e+2, 1.314e-3
3.520e+2, 1.314e-3
3.540e+2, 1.316e-3
3.560e+2, 1.316e-3
3.580e+2, 1.316e-3
3.600e+2, 1.315e-3
3.620e+2, 1.317e-3
3.640e+2, 1.317e-3
3.660e+2, 1.316e-3
3.680e+2, 1.315e-3
3.700e+2, 1.316e-3
3.720e+2, 1.317e-3
3.740e+2, 1.318e-3
3.760e+2, 1.316e-3
3.780e+2, 1.317e-3
3.800e+2, 1.317e-3
3.820e+2, 1.315e-3
3.840e+2, 1.317e-3
3.860e+2, 1.315e-3
3.880e+2, 1.316e-3
3.900e+2, 1.316e-3
3.920e+2, 1.315e-3
3.940e+2, 1.314e-3
3.960e+2, 1.316e-3
3.980e+2, 1.316e-3
4.000e+2, 1.315e-3
4.020e+2, 1.316e-3
4.040e+2, 1.316e-3
4.060e+2, 1.315e-3
4.080e+2, 1.316e-3
4.100e+2, 1.317e-3
4.120e+2, 1.317e-3
4.140e+2, 1.317e-3
4.160e+2, 1.317e-3
4.180e+2, 1.317e-3
4.200e+2, 1.318e-3
4.220e+2, 1.315e-3
4.240e+2, 1.316e-3
4.260e+2, 1.315e-3
4.280e+2, 1.316e-3
4.300e+2, 1.315e-3
4.320e+2, 1.316e-3
4.340e+2, 1.314e-3
4.360e+2, 1.315e-3
4.380e+2, 1.316e-3
4.400e+2, 1.315e-3
4.420e+2, 1.315e-3
4.440e+2, 1.315e-3
4.460e+2, 1.315e-3
4.480e+2, 1.315e-3
4.500e+2, 1.316e-3
4.520e+2, 1.315e-3
4.540e+2, 1.317e-3
4.560e+2, 1.318e-3
4.580e+2, 1.318e-3
4.600e+2, 1.317e-3
4.620e+2, 1.316e-3
4.640e+2, 1.316e-3
4.660e+2, 1.316e-3
4.680e+2, 1.316e-3
4.700e+2, 1.316e-3
4.720e+2, 1.315e-3
4.740e+2, 1.316e-3
4.760e+2, 1.315e-3
4.780e+2, 1.316e-3
4.800e+2, 1.315e-3
4.820e+2, 1.315e-3
4.840e+2, 1.315e-3
4.860e+2, 1.315e-3
4.880e+2, 1.316e-3
4.900e+2, 1.315e-3
4.920e+2, 1.316e-3
4.940e+2, 1.316e-3
4.960e+2, 1.315e-3
4.980e+2, 1.315e-3
5.000e+2, 1.316e-3
5.020e+2, 1.315e-3
5.040e+2, 1.316e-3
5.060e+2, 1.316e-3
5.080e+2, 1.317e-3
5.100e+2, 1.318e-3
5.120e+2, 1.316e-3
5.140e+2, 1.317e-3
5.160e+2, 1.316e-3
5.180e+2, 1.317e-3
5.200e+2, 1.315e-3
5.220e+2, 1.319e-3
5.240e+2, 1.319e-3
5.260e+2, 1.316e-3
5.280e+2, 1.318e-3
5.300e+2, 1.317e-3
5.320e+2, 1.317e-3
5.340e+2, 1.317e-3
5.360e+2, 1.317e-3
5.380e+2, 1.317e-3
5.400e+2, 1.317e-3
5.420e+2, 1.316e-3
5.440e+2, 1.318e-3
5.460e+2, 1.318e-3
5.480e+2, 1.317e-3
5.500e+2, 1.317e-3
5.520e+2, 1.317e-3
5.540e+2, 1.318e-3
5.560e+2, 1.317e-3
5.580e+2, 1.317e-3
5.600e+2, 1.318e-3
5.620e+2, 1.316e-3
5.640e+2, 1.318e-3
5.660e+2, 1.316e-3
5.680e+2, 1.316e-3
5.700e+2, 1.316e-3
5.720e+2, 1.317e-3
5.740e+2, 1.316e-3
5.760e+2, 1.316e-3
5.780e+2, 1.317e-3
5.800e+2, 1.317e-3
5.820e+2, 1.315e-3
5.840e+2, 1.317e-3
5.860e+2, 1.317e-3
5.880e+2, 1.316e-3
5.900e+2, 1.317e-3
5.920e+2, 1.317e-3
5.940e+2, 1.318e-3
5.960e+2, 1.316e-3
5.980e+2, 1.317e-3
6.000e+2, 1.319e-3
6.020e+2, 1.317e-3
6.040e+2, 1.317e-3
6.060e+2, 1.318e-3
6.080e+2, 1.316e-3
6.100e+2, 1.318e-3
6.120e+2, 1.318e-3
6.140e+2, 1.319e-3
6.160e+2, 1.317e-3
6.180e+2, 1.318e-3
6.200e+2, 1.319e-3
6.220e+2, 1.319e-3
6.240e+2, 1.317e-3
6.260e+2, 1.318e-3
6.280e+2, 1.317e-3
6.300e+2, 1.317e-3
6.320e+2, 1.318e-3
6.340e+2, 1.317e-3
6.360e+2, 1.317e-3
6.380e+2, 1.318e-3
6.400e+2, 1.319e-3
6.420e+2, 1.319e-3
6.440e+2, 1.318e-3
6.460e+2, 1.318e-3
6.480e+2, 1.317e-3
6.500e+2, 1.318e-3
6.520e+2, 1.317e-3
6.540e+2, 1.317e-3
6.560e+2, 1.317e-3
6.580e+2, 1.318e-3
6.600e+2, 1.316e-3
6.620e+2, 1.317e-3
6.640e+2, 1.319e-3
6.660e+2, 1.317e-3
6.680e+2, 1.318e-3
6.700e+2, 1.317e-3
6.720e+2, 1.318e-3
6.740e+2, 1.317e-3
6.760e+2, 1.317e-3
6.780e+2, 1.317e-3
6.800e+2, 1.317e-3
6.820e+2, 1.318e-3
6.840e+2, 1.318e-3
6.860e+2, 1.318e-3
6.880e+2, 1.318e-3
6.900e+2, 1.318e-3
6.920e+2, 1.319e-3
6.940e+2, 1.319e-3
6.960e+2, 1.318e-3
6.980e+2, 1.318e-3
7.000e+2, 1.317e-3
7.020e+2, 1.317e-3
7.040e+2, 1.317e-3
7.060e+2, 1.318e-3
7.080e+2, 1.317e-3
7.100e+2, 1.317e-3
7.120e+2, 1.317e-3
7.140e+2, 1.317e-3
7.160e+2, 1.316e-3
7.180e+2, 1.317e-3
7.200e+2, 1.317e-3
7.220e+2, 1.316e-3
7.240e+2, 1.316e-3
7.260e+2, 1.316e-3
7.280e+2, 1.315e-3
7.300e+2, 1.317e-3
7.320e+2, 1.316e-3
7.340e+2, 1.316e-3
7.360e+2, 1.316e-3
7.380e+2, 1.317e-3
7.400e+2, 1.317e-3
7.420e+2, 1.317e-3
7.440e+2, 1.316e-3
7.460e+2, 1.317e-3
7.480e+2, 1.318e-3
7.500e+2, 1.316e-3
7.520e+2, 1.316e-3
7.540e+2, 1.315e-3
7.560e+2, 1.316e-3
7.580e+2, 1.317e-3
7.600e+2, 1.317e-3
7.620e+2, 1.316e-3
7.640e+2, 1.316e-3
7.660e+2, 1.317e-3
7.680e+2, 1.316e-3
7.700e+2, 1.314e-3
7.720e+2, 1.316e-3
7.740e+2, 1.316e-3
7.760e+2, 1.316e-3
7.780e+2, 1.317e-3
7.800e+2, 1.318e-3
7.820e+2, 1.317e-3
7.840e+2, 1.316e-3
7.860e+2, 1.315e-3
7.880e+2, 1.318e-3
7.900e+2, 1.316e-3
7.920e+2, 1.317e-3
7.940e+2, 1.318e-3
7.960e+2, 1.318e-3
7.980e+2, 1.316e-3
8.000e+2, 1.317e-3
8.020e+2, 1.317e-3
8.040e+2, 1.317e-3
8.060e+2, 1.317e-3
8.080e+2, 1.318e-3
8.100e+2, 1.318e-3
8.120e+2, 1.317e-3
8.140e+2, 1.317e-3
8.160e+2, 1.316e-3
8.180e+2, 1.317e-3
8.200e+2, 1.317e-3
8.220e+2, 1.317e-3
8.240e+2, 1.317e-3
8.260e+2, 1.317e-3
8.280e+2, 1.317e-3
8.300e+2, 1.317e-3
8.320e+2, 1.318e-3
8.340e+2, 1.316e-3
8.360e+2, 1.317e-3
8.380e+2, 1.317e-3
8.400e+2, 1.317e-3
8.420e+2, 1.318e-3
8.440e+2, 1.318e-3
8.460e+2, 1.318e-3
8.480e+2, 1.317e-3
8.500e+2, 1.317e-3
8.520e+2, 1.317e-3
8.540e+2, 1.316e-3
8.560e+2, 1.318e-3
8.580e+2, 1.317e-3
8.600e+2, 1.316e-3
8.620e+2, 1.317e-3
8.640e+2, 1.316e-3
8.660e+2, 1.317e-3
8.680e+2, 1.316e-3
8.700e+2, 1.317e-3
8.720e+2, 1.317e-3
8.740e+2, 1.318e-3
8.760e+2, 1.317e-3
8.780e+2, 1.318e-3
8.800e+2, 1.316e-3
8.820e+2, 1.318e-3
8.840e+2, 1.316e-3
8.860e+2, 1.318e-3
8.880e+2, 1.316e-3
8.900e+2, 1.317e-3
8.920e+2, 1.318e-3
8.940e+2, 1.317e-3
8.960e+2, 1.317e-3
8.980e+2, 1.318e-3
9.000e+2, 1.318e-3
9.020e+2, 1.317e-3
9.040e+2, 1.318e-3
9.060e+2, 1.319e-3
9.080e+2, 1.318e-3
9.100e+2, 1.318e-3
9.120e+2, 1.318e-3
9.140e+2, 1.317e-3
9.160e+2, 1.317e-3
9.180e+2, 1.319e-3
9.200e+2, 1.317e-3
9.220e+2, 1.319e-3
9.240e+2, 1.318e-3
9.260e+2, 1.318e-3
9.280e+2, 1.317e-3
9.300e+2, 1.318e-3
9.320e+2, 1.318e-3
9.340e+2, 1.317e-3
9.360e+2, 1.317e-3
9.380e+2, 1.318e-3
9.400e+2, 1.317e-3
9.420e+2, 1.317e-3
9.440e+2, 1.317e-3
9.460e+2, 1.318e-3
9.480e+2, 1.318e-3
9.500e+2, 1.317e-3
9.520e+2, 1.317e-3
9.540e+2, 1.317e-3
9.560e+2, 1.317e-3
9.580e+2, 1.318e-3
9.600e+2, 1.318e-3
9.620e+2, 1.317e-3
9.640e+2, 1.316e-3
9.660e+2, 1.316e-3
9.680e+2, 1.317e-3
9.700e+2, 1.317e-3
9.720e+2, 1.316e-3
9.740e+2, 1.316e-3
9.760e+2, 1.317e-3
9.780e+2, 1.317e-3
9.800e+2, 1.317e-3
9.820e+2, 1.314e-3
9.840e+2, 1.316e-3
9.860e+2, 1.317e-3
9.880e+2, 1.314e-3
9.900e+2, 1.316e-3
9.920e+2, 1.316e-3
9.940e+2, 1.316e-3
9.960e+2, 1.316e-3
9.980e+2, 1.316e-3
1.000e+3, 1.315e-3
1.002e+3, 1.316e-3
1.004e+3, 1.317e-3
1.006e+3, 1.316e-3
1.008e+3, 1.315e-3
1.010e+3, 1.317e-3
1.012e+3, 1.316e-3
1.014e+3, 1.316e-3
1.016e+3, 1.316e-3
1.018e+3, 1.317e-3
1.020e+3, 1.316e-3
1.022e+3, 1.316e-3
1.024e+3, 1.315e-3
1.026e+3, 1.315e-3
1.028e+3, 1.315e-3
1.030e+3, 1.315e-3
1.032e+3, 1.316e-3
1.034e+3, 1.315e-3
1.036e+3, 1.317e-3
1.038e+3, 1.316e-3
1.040e+3, 1.317e-3
1.042e+3, 1.315e-3
1.044e+3, 1.316e-3
1.046e+3, 1.317e-3
1.048e+3, 1.316e-3
1.050e+3, 1.316e-3
1.052e+3, 1.316e-3
1.054e+3, 1.316e-3
1.056e+3, 1.316e-3
1.058e+3, 1.315e-3
1.060e+3, 1.316e-3
1.062e+3, 1.316e-3
1.064e+3, 1.316e-3
1.066e+3, 1.317e-3
1.068e+3, 1.317e-3
1.070e+3, 1.316e-3
1.072e+3, 1.318e-3
1.074e+3, 1.317e-3
1.076e+3, 1.315e-3
1.078e+3, 1.316e-3
1.080e+3, 1.316e-3
1.082e+3, 1.316e-3
1.084e+3, 1.316e-3
1.086e+3, 1.316e-3
1.088e+3, 1.316e-3
1.090e+3, 1.316e-3
1.092e+3, 1.317e-3
1.094e+3, 1.317e-3
1.096e+3, 1.317e-3
1.098e+3, 1.316e-3
1.100e+3, 1.314e-3
1.102e+3, 1.316e-3
1.104e+3, 1.315e-3
1.106e+3, 1.315e-3
1.108e+3, 1.317e-3
1.110e+3, 1.317e-3
1.112e+3, 1.317e-3
1.114e+3, 1.317e-3
1.116e+3, 1.315e-3
1.118e+3, 1.316e-3
1.120e+3, 1.315e-3
1.122e+3, 1.315e-3
1.124e+3, 1.316e-3
1.126e+3, 1.314e-3
1.128e+3, 1.317e-3
1.130e+3, 1.316e-3
1.132e+3, 1.315e-3
1.134e+3, 1.316e-3
1.136e+3, 1.317e-3
1.138e+3, 1.316e-3
1.140e+3, 1.315e-3
1.142e+3, 1.316e-3
1.144e+3, 1.316e-3
1.146e+3, 1.316e-3
1.148e+3, 1.315e-3
1.150e+3, 1.316e-3
1.152e+3, 1.315e-3
1.154e+3, 1.315e-3
1.156e+3, 1.316e-3
1.158e+3, 1.316e-3
1.160e+3, 1.316e-3
1.162e+3, 1.317e-3
1.164e+3, 1.318e-3
1.166e+3, 1.317e-3
1.168e+3, 1.316e-3
1.170e+3, 1.316e-3
1.172e+3, 1.316e-3
1.174e+3, 1.316e-3
1.176e+3, 1.317e-3
1.178e+3, 1.316e-3
1.180e+3, 1.317e-3
1.182e+3, 1.318e-3
1.184e+3, 1.316e-3
1.186e+3, 1.318e-3
1.188e+3, 1.316e-3
1.190e+3, 1.317e-3
1.192e+3, 1.315e-3
1.194e+3, 1.317e-3
1.196e+3, 1.317e-3
1.198e+3, 1.318e-3
1.200e+3, 1.318e-3
1.202e+3, 1.317e-3
1.204e+3, 1.316e-3
1.206e+3, 1.315e-3
1.208e+3, 1.316e-3
1.210e+3, 1.315e-3
1.212e+3, 1.316e-3
1.214e+3, 1.317e-3
1.216e+3, 1.316e-3
1.218e+3, 1.316e-3
1.220e+3, 1.315e-3
1.222e+3, 1.315e-3
1.224e+3, 1.315e-3
1.226e+3, 1.315e-3
1.228e+3, 1.314e-3
1.230e+3, 1.315e-3
1.232e+3, 1.316e-3
1.234e+3, 1.317e-3
1.236e+3, 1.315e-3
1.238e+3, 1.316e-3
1.240e+3, 1.317e-3
1.242e+3, 1.316e-3
1.244e+3, 1.315e-3
1.246e+3, 1.316e-3
1.248e+3, 1.317e-3
1.250e+3, 1.317e-3
1.252e+3, 1.316e-3
1.254e+3, 1.316e-3
1.256e+3, 1.316e-3
1.258e+3, 1.315e-3
1.260e+3, 1.315e-3
1.262e+3, 1.315e-3
1.264e+3, 1.316e-3
1.266e+3, 1.317e-3
1.268e+3, 1.317e-3
1.270e+3, 1.315e-3
1.272e+3, 1.315e-3
1.274e+3, 1.315e-3
1.276e+3, 1.317e-3
1.278e+3, 1.316e-3
1.280e+3, 1.316e-3
1.282e+3, 1.317e-3
1.284e+3, 1.318e-3
1.286e+3, 1.317e-3
1.288e+3, 1.316e-3
1.290e+3, 1.317e-3
1.292e+3, 1.317e-3
1.294e+3, 1.316e-3
1.296e+3, 1.316e-3
1.298e+3, 1.316e-3
1.300e+3, 1.316e-3
1.302e+3, 1.316e-3
1.304e+3, 1.315e-3
1.306e+3, 1.315e-3
1.308e+3, 1.316e-3
1.310e+3, 1.314e-3
1.312e+3, 1.316e-3
1.314e+3, 1.317e-3
1.316e+3, 1.316e-3
1.318e+3, 1.316e-3
1.320e+3, 1.315e-3
1.322e+3, 1.316e-3
1.324e+3, 1.316e-3
1.326e+3, 1.317e-3
1.328e+3, 1.317e-3
1.330e+3, 1.318e-3
1.332e+3, 1.318e-3
1.334e+3, 1.317e-3
1.336e+3, 1.317e-3
1.338e+3, 1.317e-3
1.340e+3, 1.316e-3
1.342e+3, 1.315e-3
1.344e+3, 1.317e-3
1.346e+3, 1.317e-3
1.348e+3, 1.317e-3
1.350e+3, 1.317e-3
1.352e+3, 1.316e-3
1.354e+3, 1.316e-3
1.356e+3, 1.317e-3
1.358e+3, 1.318e-3
1.360e+3, 1.318e-3
1.362e+3, 1.317e-3
1.364e+3, 1.316e-3
1.366e+3, 1.316e-3
1.368e+3, 1.318e-3
1.370e+3, 1.317e-3
1.372e+3, 1.317e-3
1.374e+3, 1.316e-3
1.376e+3, 1.316e-3
1.378e+3, 1.317e-3
1.380e+3, 1.318e-3
1.382e+3, 1.318e-3
1.384e+3, 1.317e-3
1.386e+3, 1.316e-3
1.388e+3, 1.317e-3
1.390e+3, 1.317e-3
1.392e+3, 1.318e-3
1.394e+3, 1.316e-3
1.396e+3, 1.316e-3
1.398e+3, 1.316e-3
1.400e+3, 1.316e-3
1.402e+3, 1.316e-3
1.404e+3, 1.316e-3
1.406e+3, 1.316e-3
1.408e+3, 1.317e-3
1.410e+3, 1.315e-3
1.412e+3, 1.316e-3
1.414e+3, 1.317e-3
1.416e+3, 1.316e-3
1.418e+3, 1.315e-3
1.420e+3, 1.316e-3
1.422e+3, 1.316e-3
1.424e+3, 1.317e-3
1.426e+3, 1.317e-3
1.428e+3, 1.316e-3
1.430e+3, 1.318e-3
1.432e+3, 1.316e-3
1.434e+3, 1.317e-3
1.436e+3, 1.317e-3
1.438e+3, 1.316e-3
1.440e+3, 1.317e-3
1.442e+3, 1.317e-3
1.444e+3, 1.316e-3
1.446e+3, 1.314e-3
1.448e+3, 1.315e-3
1.450e+3, 1.314e-3
1.452e+3, 1.315e-3
1.454e+3, 1.314e-3
1.456e+3, 1.314e-3
1.458e+3, 1.314e-3
1.460e+3, 1.314e-3
1.462e+3, 1.315e-3
1.464e+3, 1.314e-3
1.466e+3, 1.314e-3
1.468e+3, 1.316e-3
1.470e+3, 1.315e-3
1.472e+3, 1.315e-3
1.474e+3, 1.316e-3
1.476e+3, 1.316e-3
1.478e+3, 1.316e-3
1.480e+3, 1.316e-3
1.482e+3, 1.317e-3
1.484e+3, 1.315e-3
1.486e+3, 1.317e-3
1.488e+3, 1.317e-3
1.490e+3, 1.315e-3
1.492e+3, 1.316e-3
1.494e+3, 1.316e-3
1.496e+3, 1.316e-3
1.498e+3, 1.317e-3
1.500e+3, 1.316e-3
1.502e+3, 1.316e-3
1.504e+3, 1.315e-3
1.506e+3, 1.315e-3
1.508e+3, 1.314e-3
1.510e+3, 1.315e-3
1.512e+3, 1.315e-3
1.514e+3, 1.315e-3
1.516e+3, 1.315e-3
1.518e+3, 1.316e-3
1.520e+3, 1.317e-3
1.522e+3, 1.317e-3
1.524e+3, 1.316e-3
1.526e+3, 1.315e-3
1.528e+3, 1.315e-3
1.530e+3, 1.315e-3
1.532e+3, 1.315e-3
1.534e+3, 1.314e-3
1.536e+3, 1.314e-3
1.538e+3, 1.314e-3
1.540e+3, 1.314e-3
1.542e+3, 1.315e-3
1.544e+3, 1.314e-3
1.546e+3, 1.316e-3
1.548e+3, 1.316e-3
1.550e+3, 1.315e-3
1.552e+3, 1.315e-3
1.554e+3, 1.316e-3
1.556e+3, 1.316e-3
1.558e+3, 1.316e-3
1.560e+3, 1.315e-3
1.562e+3, 1.317e-3
1.564e+3, 1.316e-3
1.566e+3, 1.315e-3
1.568e+3, 1.314e-3
1.570e+3, 1.316e-3
1.572e+3, 1.316e-3
1.574e+3, 1.316e-3
1.576e+3, 1.316e-3
1.578e+3, 1.315e-3
1.580e+3, 1.316e-3
1.582e+3, 1.316e-3
1.584e+3, 1.315e-3
1.586e+3, 1.316e-3
1.588e+3, 1.316e-3
1.590e+3, 1.315e-3
1.592e+3, 1.317e-3
1.594e+3, 1.316e-3
1.596e+3, 1.316e-3
1.598e+3, 1.315e-3
1.600e+3, 1.316e-3
1.602e+3, 1.314e-3
1.604e+3, 1.315e-3
1.606e+3, 1.315e-3
1.608e+3, 1.314e-3
1.610e+3, 1.314e-3
1.612e+3, 1.314e-3
1.614e+3, 1.315e-3
1.616e+3, 1.315e-3
1.618e+3, 1.314e-3
1.620e+3, 1.315e-3
1.622e+3, 1.315e-3
1.624e+3, 1.316e-3
1.626e+3, 1.316e-3
1.628e+3, 1.315e-3
1.630e+3, 1.315e-3
1.632e+3, 1.314e-3
1.634e+3, 1.316e-3
1.636e+3, 1.315e-3
1.638e+3, 1.315e-3
1.640e+3, 1.314e-3
1.642e+3, 1.314e-3
1.644e+3, 1.315e-3
1.646e+3, 1.316e-3
1.648e+3, 1.313e-3
1.650e+3, 1.315e-3
1.652e+3, 1.315e-3
1.654e+3, 1.315e-3
1.656e+3, 1.314e-3
1.658e+3, 1.314e-3
1.660e+3, 1.314e-3
1.662e+3, 1.315e-3
1.664e+3, 1.315e-3
1.666e+3, 1.316e-3
1.668e+3, 1.316e-3
1.670e+3, 1.316e-3
1.672e+3, 1.315e-3
1.674e+3, 1.314e-3
1.676e+3, 1.315e-3
1.678e+3, 1.315e-3
1.680e+3, 1.315e-3
1.682e+3, 1.315e-3
1.684e+3, 1.314e-3
1.686e+3, 1.315e-3
1.688e+3, 1.315e-3
1.690e+3, 1.315e-3
1.692e+3, 1.314e-3
1.694e+3, 1.315e-3
1.696e+3, 1.314e-3
1.698e+3, 1.314e-3
1.700e+3, 1.314e-3
1.702e+3, 1.315e-3
1.704e+3, 1.314e-3
1.706e+3, 1.315e-3
1.708e+3, 1.315e-3
1.710e+3, 1.316e-3
1.712e+3, 1.315e-3
1.714e+3, 1.316e-3
1.716e+3, 1.315e-3
1.718e+3, 1.316e-3
1.720e+3, 1.315e-3
1.722e+3, 1.316e-3
1.724e+3, 1.315e-3
1.726e+3, 1.315e-3
1.728e+3, 1.314e-3
1.730e+3, 1.314e-3
1.732e+3, 1.315e-3
1.734e+3, 1.313e-3
1.736e+3, 1.313e-3
1.738e+3, 1.313e-3
1.740e+3, 1.313e-3
1.742e+3, 1.314e-3
1.744e+3, 1.313e-3
1.746e+3, 1.313e-3
1.748e+3, 1.313e-3
1.750e+3, 1.313e-3
1.752e+3, 1.313e-3
1.754e+3, 1.312e-3
1.756e+3, 1.314e-3
1.758e+3, 1.314e-3
1.760e+3, 1.313e-3
1.762e+3, 1.313e-3
1.764e+3, 1.312e-3
1.766e+3, 1.313e-3
1.768e+3, 1.313e-3
1.770e+3, 1.314e-3
1.772e+3, 1.315e-3
1.774e+3, 1.314e-3
1.776e+3, 1.314e-3
1.778e+3, 1.314e-3
1.780e+3, 1.314e-3
1.782e+3, 1.315e-3
1.784e+3, 1.315e-3
1.786e+3, 1.314e-3
1.788e+3, 1.314e-3
1.790e+3, 1.313e-3
1.792e+3, 1.314e-3
1.794e+3, 1.313e-3
1.796e+3, 1.314e-3
1.798e+3, 1.313e-3
1.800e+3, 1.316e-3
1.802e+3, 1.315e-3
1.804e+3, 1.315e-3
1.806e+3, 1.315e-3
1.808e+3, 1.316e-3
1.810e+3, 1.314e-3
1.812e+3, 1.314e-3
1.814e+3, 1.315e-3
1.816e+3, 1.315e-3
1.818e+3, 1.314e-3
1.820e+3, 1.313e-3
1.822e+3, 1.313e-3
1.824e+3, 1.312e-3
1.826e+3, 1.313e-3
1.828e+3, 1.315e-3
1.830e+3, 1.315e-3
1.832e+3, 1.314e-3
1.834e+3, 1.314e-3
1.836e+3, 1.314e-3
1.838e+3, 1.315e-3
1.840e+3, 1.315e-3
1.842e+3, 1.314e-3
1.844e+3, 1.314e-3
1.846e+3, 1.314e-3
1.848e+3, 1.315e-3
1.850e+3, 1.315e-3
1.852e+3, 1.315e-3
1.854e+3, 1.315e-3
1.856e+3, 1.315e-3
1.858e+3, 1.314e-3
1.860e+3, 1.313e-3
1.862e+3, 1.314e-3
1.864e+3, 1.315e-3
1.866e+3, 1.313e-3
1.868e+3, 1.313e-3
1.870e+3, 1.313e-3
1.872e+3, 1.314e-3
1.874e+3, 1.314e-3
1.876e+3, 1.313e-3
1.878e+3, 1.314e-3
1.880e+3, 1.312e-3
1.882e+3, 1.313e-3
1.884e+3, 1.313e-3
1.886e+3, 1.314e-3
1.888e+3, 1.313e-3
1.890e+3, 1.314e-3
1.892e+3, 1.314e-3
1.894e+3, 1.314e-3
1.896e+3, 1.313e-3
1.898e+3, 1.315e-3
1.900e+3, 1.313e-3
1.902e+3, 1.314e-3
1.904e+3, 1.314e-3
1.906e+3, 1.312e-3
1.908e+3, 1.313e-3
1.910e+3, 1.313e-3
1.912e+3, 1.313e-3
1.914e+3, 1.312e-3
1.916e+3, 1.312e-3
1.918e+3, 1.313e-3
1.920e+3, 1.314e-3
1.922e+3, 1.312e-3
1.924e+3, 1.312e-3
1.926e+3, 1.313e-3
1.928e+3, 1.313e-3
1.930e+3, 1.312e-3
1.932e+3, 1.312e-3
1.934e+3, 1.312e-3
1.936e+3, 1.314e-3
1.938e+3, 1.315e-3
1.940e+3, 1.314e-3
1.942e+3, 1.315e-3
1.944e+3, 1.315e-3
1.946e+3, 1.315e-3
1.948e+3, 1.314e-3
1.950e+3, 1.316e-3
1.952e+3, 1.315e-3
1.954e+3, 1.315e-3
1.956e+3, 1.314e-3
1.958e+3, 1.313e-3
1.960e+3, 1.312e-3
1.962e+3, 1.314e-3
1.964e+3, 1.313e-3
1.966e+3, 1.313e-3
1.968e+3, 1.312e-3
1.970e+3, 1.314e-3
1.972e+3, 1.313e-3
1.974e+3, 1.313e-3
1.976e+3, 1.313e-3
1.978e+3, 1.313e-3
1.980e+3, 1.313e-3
1.982e+3, 1.313e-3
1.984e+3, 1.314e-3
1.986e+3, 1.312e-3
1.988e+3, 1.313e-3
1.990e+3, 1.312e-3
1.992e+3, 1.311e-3
1.994e+3, 1.312e-3
1.996e+3, 1.312e-3
1.998e+3, 1.311e-3
2.000e+3, 1.312e-3
2.002e+3, 1.313e-3
2.004e+3, 1.314e-3
2.006e+3, 1.313e-3
2.008e+3, 1.313e-3
2.010e+3, 1.314e-3
2.012e+3, 1.313e-3
2.014e+3, 1.314e-3
2.016e+3, 1.313e-3
2.018e+3, 1.315e-3
2.020e+3, 1.313e-3
2.022e+3, 1.313e-3
2.024e+3, 1.314e-3
2.026e+3, 1.314e-3
2.028e+3, 1.313e-3
2.030e+3, 1.313e-3
2.032e+3, 1.313e-3
2.034e+3, 1.312e-3
2.036e+3, 1.313e-3
2.038e+3, 1.313e-3
2.040e+3, 1.312e-3
2.042e+3, 1.311e-3
2.044e+3, 1.313e-3
2.046e+3, 1.314e-3
2.048e+3, 1.313e-3
2.050e+3, 1.312e-3
2.052e+3, 1.313e-3
2.054e+3, 1.312e-3
2.056e+3, 1.312e-3
2.058e+3, 1.313e-3
2.060e+3, 1.312e-3
2.062e+3, 1.313e-3
2.064e+3, 1.312e-3
2.066e+3, 1.311e-3
2.068e+3, 1.312e-3
2.070e+3, 1.311e-3
2.072e+3, 1.314e-3
2.074e+3, 1.313e-3
2.076e+3, 1.312e-3
2.078e+3, 1.311e-3
2.080e+3, 1.311e-3
2.082e+3, 1.312e-3
2.084e+3, 1.313e-3
2.086e+3, 1.312e-3
2.088e+3, 1.311e-3
2.090e+3, 1.311e-3
2.092e+3, 1.312e-3
2.094e+3, 1.312e-3
2.096e+3, 1.313e-3
2.098e+3, 1.311e-3
2.100e+3, 1.313e-3
2.102e+3, 1.314e-3
2.104e+3, 1.313e-3
2.106e+3, 1.313e-3
2.108e+3, 1.313e-3
2.110e+3, 1.313e-3
2.112e+3, 1.314e-3
2.114e+3, 1.313e-3
2.116e+3, 1.312e-3
2.118e+3, 1.312e-3
2.120e+3, 1.312e-3
2.122e+3, 1.313e-3
2.124e+3, 1.311e-3
2.126e+3, 1.313e-3
2.128e+3, 1.312e-3
2.130e+3, 1.313e-3
2.132e+3, 1.313e-3
2.134e+3, 1.311e-3
2.136e+3, 1.314e-3
2.138e+3, 1.312e-3
2.140e+3, 1.311e-3
2.142e+3, 1.310e-3
2.144e+3, 1.312e-3
2.146e+3, 1.311e-3
2.148e+3, 1.312e-3
2.150e+3, 1.312e-3
2.152e+3, 1.311e-3
2.154e+3, 1.312e-3
2.156e+3, 1.310e-3
2.158e+3, 1.311e-3
2.160e+3, 1.311e-3
2.162e+3, 1.312e-3
2.164e+3, 1.311e-3
2.166e+3, 1.312e-3
2.168e+3, 1.313e-3
2.170e+3, 1.311e-3
2.172e+3, 1.311e-3
2.174e+3, 1.312e-3
2.176e+3, 1.311e-3
2.178e+3, 1.312e-3
2.180e+3, 1.312e-3
2.182e+3, 1.312e-3
2.184e+3, 1.313e-3
2.186e+3, 1.312e-3
2.188e+3, 1.312e-3
2.190e+3, 1.313e-3
2.192e+3, 1.313e-3
2.194e+3, 1.311e-3
2.196e+3, 1.313e-3
2.198e+3, 1.313e-3
2.200e+3, 1.312e-3
2.202e+3, 1.313e-3
2.204e+3, 1.312e-3
2.206e+3, 1.314e-3
2.208e+3, 1.314e-3
2.210e+3, 1.312e-3
2.212e+3, 1.312e-3
2.214e+3, 1.313e-3
2.216e+3, 1.314e-3
2.218e+3, 1.314e-3
2.220e+3, 1.313e-3
2.222e+3, 1.314e-3
2.224e+3, 1.312e-3
2.226e+3, 1.312e-3
2.228e+3, 1.314e-3
2.230e+3, 1.313e-3
2.232e+3, 1.312e-3
2.234e+3, 1.312e-3
2.236e+3, 1.312e-3
2.238e+3, 1.311e-3
2.240e+3, 1.312e-3
2.242e+3, 1.313e-3
2.244e+3, 1.314e-3
2.246e+3, 1.313e-3
2.248e+3, 1.314e-3
2.250e+3, 1.313e-3
2.252e+3, 1.312e-3
2.254e+3, 1.313e-3
2.256e+3, 1.313e-3
2.258e+3, 1.315e-3
2.260e+3, 1.314e-3
2.262e+3, 1.313e-3
2.264e+3, 1.313e-3
2.266e+3, 1.314e-3
2.268e+3, 1.314e-3
2.270e+3, 1.313e-3
2.272e+3, 1.314e-3
2.274e+3, 1.313e-3
2.276e+3, 1.313e-3
2.278e+3, 1.313e-3
2.280e+3, 1.314e-3
2.282e+3, 1.314e-3
2.284e+3, 1.314e-3
2.286e+3, 1.313e-3
2.288e+3, 1.313e-3
2.290e+3, 1.312e-3
2.292e+3, 1.315e-3
2.294e+3, 1.313e-3
2.296e+3, 1.313e-3
2.298e+3, 1.314e-3
2.300e+3, 1.314e-3
2.302e+3, 1.313e-3
2.304e+3, 1.313e-3
2.306e+3, 1.314e-3
2.308e+3, 1.313e-3
2.310e+3, 1.314e-3
2.312e+3, 1.312e-3
2.314e+3, 1.313e-3
2.316e+3, 1.313e-3
2.318e+3, 1.312e-3
2.320e+3, 1.313e-3
2.322e+3, 1.312e-3
2.324e+3, 1.314e-3
2.326e+3, 1.313e-3
2.328e+3, 1.313e-3
2.330e+3, 1.311e-3
2.332e+3, 1.312e-3
2.334e+3, 1.313e-3
2.336e+3, 1.314e-3
2.338e+3, 1.313e-3
2.340e+3, 1.312e-3
2.342e+3, 1.312e-3
2.344e+3, 1.312e-3
2.346e+3, 1.314e-3
2.348e+3, 1.312e-3
2.350e+3, 1.310e-3
2.352e+3, 1.309e-3
2.354e+3, 1.311e-3
2.356e+3, 1.311e-3
2.358e+3, 1.310e-3
2.360e+3, 1.310e-3
2.362e+3, 1.310e-3
2.364e+3, 1.310e-3
2.366e+3, 1.312e-3
2.368e+3, 1.310e-3
2.370e+3, 1.310e-3
2.372e+3, 1.311e-3
2.374e+3, 1.312e-3
2.376e+3, 1.311e-3
2.378e+3, 1.312e-3
2.380e+3, 1.311e-3
2.382e+3, 1.310e-3
2.384e+3, 1.312e-3
2.386e+3, 1.312e-3
2.388e+3, 1.311e-3
2.390e+3, 1.313e-3
2.392e+3, 1.312e-3
2.394e+3, 1.313e-3
2.396e+3, 1.313e-3
2.398e+3, 1.312e-3
2.400e+3, 1.311e-3
2.402e+3, 1.312e-3
2.404e+3, 1.312e-3
2.406e+3, 1.311e-3
2.408e+3, 1.311e-3
2.410e+3, 1.311e-3
2.412e+3, 1.310e-3
2.414e+3, 1.311e-3
2.416e+3, 1.312e-3
2.418e+3, 1.311e-3
2.420e+3, 1.311e-3
2.422e+3, 1.311e-3
2.424e+3, 1.312e-3
2.426e+3, 1.312e-3
2.428e+3, 1.312e-3
2.430e+3, 1.309e-3
2.432e+3, 1.311e-3
2.434e+3, 1.311e-3
2.436e+3, 1.312e-3
2.438e+3, 1.311e-3
2.440e+3, 1.313e-3
2.442e+3, 1.312e-3
2.444e+3, 1.312e-3
2.446e+3, 1.313e-3
2.448e+3, 1.312e-3
2.450e+3, 1.312e-3
2.452e+3, 1.313e-3
2.454e+3, 1.312e-3
2.456e+3, 1.311e-3
2.458e+3, 1.312e-3
2.460e+3, 1.312e-3
2.462e+3, 1.312e-3
2.464e+3, 1.311e-3
2.466e+3, 1.312e-3
2.468e+3, 1.312e-3
2.470e+3, 1.312e-3
2.472e+3, 1.313e-3
2.474e+3, 1.313e-3
2.476e+3, 1.312e-3
2.478e+3, 1.313e-3
2.480e+3, 1.312e-3
2.482e+3, 1.313e-3
2.484e+3, 1.312e-3
2.486e+3, 1.311e-3
2.488e+3, 1.311e-3
2.490e+3, 1.311e-3
2.492e+3, 1.311e-3
2.494e+3, 1.312e-3
2.496e+3, 1.312e-3
2.498e+3, 1.311e-3
2.500e+3, 1.312e-3
2.502e+3, 1.312e-3
2.504e+3, 1.312e-3
2.506e+3, 1.312e-3
2.508e+3, 1.311e-3
2.510e+3, 1.313e-3
2.512e+3, 1.311e-3
2.514e+3, 1.312e-3
2.516e+3, 1.313e-3
2.518e+3, 1.312e-3
2.520e+3, 1.312e-3
2.522e+3, 1.311e-3
2.524e+3, 1.311e-3
2.526e+3, 1.311e-3
2.528e+3, 1.311e-3
2.530e+3, 1.311e-3
2.532e+3, 1.311e-3
2.534e+3, 1.311e-3
2.536e+3, 1.310e-3
2.538e+3, 1.312e-3
2.540e+3, 1.311e-3
2.542e+3, 1.310e-3
2.544e+3, 1.310e-3
2.546e+3, 1.312e-3
2.548e+3, 1.311e-3
2.550e+3, 1.312e-3
2.552e+3, 1.311e-3
2.554e+3, 1.310e-3
2.556e+3, 1.311e-3
2.558e+3, 1.311e-3
2.560e+3, 1.310e-3
2.562e+3, 1.311e-3
2.564e+3, 1.311e-3
2.566e+3, 1.311e-3
2.568e+3, 1.310e-3
2.570e+3, 1.310e-3
2.572e+3, 1.310e-3
2.574e+3, 1.310e-3
2.576e+3, 1.312e-3
2.578e+3, 1.311e-3
2.580e+3, 1.311e-3
2.582e+3, 1.311e-3
2.584e+3, 1.310e-3
2.586e+3, 1.312e-3
2.588e+3, 1.309e-3
2.590e+3, 1.311e-3
2.592e+3, 1.310e-3
2.594e+3, 1.310e-3
2.596e+3, 1.311e-3
2.598e+3, 1.313e-3
2.600e+3, 1.310e-3
2.602e+3, 1.311e-3
2.604e+3, 1.311e-3
2.606e+3, 1.310e-3
2.608e+3, 1.311e-3
2.610e+3, 1.309e-3
2.612e+3, 1.311e-3
2.614e+3, 1.311e-3
2.616e+3, 1.311e-3
2.618e+3, 1.311e-3
2.620e+3, 1.310e-3
2.622e+3, 1.310e-3
2.624e+3, 1.309e-3
2.626e+3, 1.309e-3
2.628e+3, 1.309e-3
2.630e+3, 1.311e-3
2.632e+3, 1.311e-3
2.634e+3, 1.310e-3
2.636e+3, 1.311e-3
2.638e+3, 1.309e-3
2.640e+3, 1.311e-3
2.642e+3, 1.311e-3
2.644e+3, 1.311e-3
2.646e+3, 1.311e-3
2.648e+3, 1.311e-3
2.650e+3, 1.311e-3
2.652e+3, 1.312e-3
2.654e+3, 1.312e-3
2.656e+3, 1.313e-3
2.658e+3, 1.312e-3
2.660e+3, 1.312e-3
2.662e+3, 1.311e-3
2.664e+3, 1.311e-3
2.666e+3, 1.311e-3
2.668e+3, 1.312e-3
2.670e+3, 1.311e-3
2.672e+3, 1.312e-3
2.674e+3, 1.309e-3
2.676e+3, 1.312e-3
2.678e+3, 1.312e-3
2.680e+3, 1.312e-3
2.682e+3, 1.312e-3
2.684e+3, 1.311e-3
2.686e+3, 1.310e-3
2.688e+3, 1.310e-3
2.690e+3, 1.311e-3
2.692e+3, 1.311e-3
2.694e+3, 1.311e-3
2.696e+3, 1.312e-3
2.698e+3, 1.312e-3
2.700e+3, 1.311e-3
2.702e+3, 1.312e-3
2.704e+3, 1.310e-3
2.706e+3, 1.311e-3
2.708e+3, 1.311e-3
2.710e+3, 1.310e-3
2.712e+3, 1.310e-3
2.714e+3, 1.309e-3
2.716e+3, 1.309e-3
2.718e+3, 1.309e-3
2.720e+3, 1.310e-3
2.722e+3, 1.308e-3
2.724e+3, 1.310e-3
2.726e+3, 1.309e-3
2.728e+3, 1.310e-3
2.730e+3, 1.309e-3
2.732e+3, 1.311e-3
2.734e+3, 1.310e-3
2.736e+3, 1.311e-3
2.738e+3, 1.311e-3
2.740e+3, 1.309e-3
2.742e+3, 1.309e-3
2.744e+3, 1.310e-3
2.746e+3, 1.309e-3
2.748e+3, 1.309e-3
2.750e+3, 1.310e-3
2.752e+3, 1.311e-3
2.754e+3, 1.311e-3
2.756e+3, 1.310e-3
2.758e+3, 1.309e-3
2.760e+3, 1.310e-3
2.762e+3, 1.310e-3
2.764e+3, 1.311e-3
2.766e+3, 1.311e-3
2.768e+3, 1.310e-3
2.770e+3, 1.312e-3
2.772e+3, 1.310e-3
2.774e+3, 1.310e-3
2.776e+3, 1.312e-3
2.778e+3, 1.311e-3
2.780e+3, 1.310e-3
2.782e+3, 1.311e-3
2.784e+3, 1.310e-3
2.786e+3, 1.311e-3
2.788e+3, 1.311e-3
2.790e+3, 1.312e-3
2.792e+3, 1.311e-3
2.794e+3, 1.311e-3
2.796e+3, 1.312e-3
2.798e+3, 1.312e-3
2.800e+3, 1.310e-3
2.802e+3, 1.311e-3
2.804e+3, 1.309e-3
2.806e+3, 1.310e-3
2.808e+3, 1.310e-3
2.810e+3, 1.311e-3
2.812e+3, 1.309e-3
2.814e+3, 1.311e-3
2.816e+3, 1.310e-3
2.818e+3, 1.310e-3
2.820e+3, 1.309e-3
2.822e+3, 1.308e-3
2.824e+3, 1.308e-3
2.826e+3, 1.310e-3
2.828e+3, 1.309e-3
2.830e+3, 1.310e-3
2.832e+3, 1.310e-3
2.834e+3, 1.310e-3
2.836e+3, 1.310e-3
2.838e+3, 1.310e-3
2.840e+3, 1.309e-3
2.842e+3, 1.310e-3
2.844e+3, 1.309e-3
2.846e+3, 1.308e-3
2.848e+3, 1.308e-3
2.850e+3, 1.310e-3
2.852e+3, 1.308e-3
2.854e+3, 1.308e-3
2.856e+3, 1.310e-3
2.858e+3, 1.309e-3
2.860e+3, 1.310e-3
2.862e+3, 1.310e-3
2.864e+3, 1.310e-3
2.866e+3, 1.310e-3
2.868e+3, 1.312e-3
2.870e+3, 1.310e-3
2.872e+3, 1.310e-3
2.874e+3, 1.311e-3
2.876e+3, 1.312e-3
2.878e+3, 1.312e-3
2.880e+3, 1.310e-3
2.882e+3, 1.310e-3
2.884e+3, 1.311e-3
2.886e+3, 1.311e-3
2.888e+3, 1.310e-3
2.890e+3, 1.310e-3
2.892e+3, 1.312e-3
2.894e+3, 1.309e-3
2.896e+3, 1.312e-3
2.898e+3, 1.310e-3
2.900e+3, 1.310e-3
2.902e+3, 1.311e-3
2.904e+3, 1.310e-3
2.906e+3, 1.311e-3
2.908e+3, 1.310e-3
2.910e+3, 1.310e-3
2.912e+3, 1.311e-3
2.914e+3, 1.310e-3
2.916e+3, 1.311e-3
2.918e+3, 1.310e-3
2.920e+3, 1.310e-3
2.922e+3, 1.311e-3
2.924e+3, 1.312e-3
2.926e+3, 1.311e-3
2.928e+3, 1.312e-3
2.930e+3, 1.311e-3
2.932e+3, 1.310e-3
2.934e+3, 1.310e-3
2.936e+3, 1.310e-3
2.938e+3, 1.309e-3
2.940e+3, 1.310e-3
2.942e+3, 1.310e-3
2.944e+3, 1.310e-3
2.946e+3, 1.311e-3
2.948e+3, 1.311e-3
2.950e+3, 1.310e-3
2.952e+3, 1.311e-3
2.954e+3, 1.310e-3
2.956e+3, 1.311e-3
2.958e+3, 1.312e-3
2.960e+3, 1.310e-3
2.962e+3, 1.311e-3
2.964e+3, 1.312e-3
2.966e+3, 1.310e-3
2.968e+3, 1.311e-3
2.970e+3, 1.310e-3
2.972e+3, 1.310e-3
2.974e+3, 1.310e-3
2.976e+3, 1.310e-3
2.978e+3, 1.311e-3
2.980e+3, 1.310e-3
2.982e+3, 1.310e-3
2.984e+3, 1.310e-3
2.986e+3, 1.311e-3
2.988e+3, 1.310e-3
2.990e+3, 1.310e-3
2.992e+3, 1.311e-3
2.994e+3, 1.312e-3
2.996e+3, 1.311e-3
2.998e+3, 1.310e-3
3.000e+3, 1.312e-3
3.002e+3, 1.313e-3
3.004e+3, 1.312e-3
3.006e+3, 1.311e-3
3.008e+3, 1.311e-3
3.010e+3, 1.311e-3
3.012e+3, 1.310e-3
3.014e+3, 1.311e-3
3.016e+3, 1.311e-3
3.018e+3, 1.310e-3
3.020e+3, 1.310e-3
3.022e+3, 1.312e-3
3.024e+3, 1.311e-3
3.026e+3, 1.310e-3
3.028e+3, 1.311e-3
3.030e+3, 1.310e-3
3.032e+3, 1.311e-3
3.034e+3, 1.311e-3
3.036e+3, 1.312e-3
3.038e+3, 1.311e-3
3.040e+3, 1.311e-3
3.042e+3, 1.311e-3
3.044e+3, 1.310e-3
3.046e+3, 1.312e-3
3.048e+3, 1.311e-3
3.050e+3, 1.310e-3
3.052e+3, 1.310e-3
3.054e+3, 1.310e-3
3.056e+3, 1.310e-3
3.058e+3, 1.312e-3
3.060e+3, 1.311e-3
3.062e+3, 1.309e-3
3.064e+3, 1.311e-3
3.066e+3, 1.309e-3
3.068e+3, 1.311e-3
3.070e+3, 1.309e-3
3.072e+3, 1.312e-3
3.074e+3, 1.311e-3
3.076e+3, 1.310e-3
3.078e+3, 1.311e-3
3.080e+3, 1.310e-3
3.082e+3, 1.312e-3
3.084e+3, 1.311e-3
3.086e+3, 1.311e-3
3.088e+3, 1.308e-3
3.090e+3, 1.310e-3
3.092e+3, 1.310e-3
3.094e+3, 1.311e-3
3.096e+3, 1.310e-3
3.098e+3, 1.312e-3
3.100e+3, 1.310e-3
3.102e+3, 1.310e-3
3.104e+3, 1.310e-3
3.106e+3, 1.311e-3
3.108e+3, 1.310e-3
3.110e+3, 1.310e-3
3.112e+3, 1.309e-3
3.114e+3, 1.310e-3
3.116e+3, 1.311e-3
3.118e+3, 1.311e-3
3.120e+3, 1.312e-3
3.122e+3, 1.311e-3
3.124e+3, 1.311e-3
3.126e+3, 1.311e-3
3.128e+3, 1.311e-3
3.130e+3, 1.311e-3
3.132e+3, 1.311e-3
3.134e+3, 1.310e-3
3.136e+3, 1.310e-3
3.138e+3, 1.310e-3
3.140e+3, 1.309e-3
3.142e+3, 1.309e-3
3.144e+3, 1.308e-3
3.146e+3, 1.309e-3
3.148e+3, 1.309e-3
3.150e+3, 1.310e-3
3.152e+3, 1.309e-3
3.154e+3, 1.310e-3
3.156e+3, 1.309e-3
3.158e+3, 1.309e-3
3.160e+3, 1.310e-3
3.162e+3, 1.308e-3
3.164e+3, 1.311e-3
3.166e+3, 1.312e-3
3.168e+3, 1.312e-3
3.170e+3, 1.311e-3
3.172e+3, 1.310e-3
3.174e+3, 1.309e-3
3.176e+3, 1.310e-3
3.178e+3, 1.311e-3
3.180e+3, 1.310e-3
3.182e+3, 1.310e-3
3.184e+3, 1.311e-3
3.186e+3, 1.310e-3
3.188e+3, 1.310e-3
3.190e+3, 1.311e-3
3.192e+3, 1.310e-3
3.194e+3, 1.310e-3
3.196e+3, 1.310e-3
3.198e+3, 1.310e-3
3.200e+3, 1.310e-3
3.202e+3, 1.310e-3
3.204e+3, 1.310e-3
3.206e+3, 1.308e-3
3.208e+3, 1.309e-3
3.210e+3, 1.310e-3
3.212e+3, 1.311e-3
3.214e+3, 1.312e-3
3.216e+3, 1.311e-3
3.218e+3, 1.310e-3
3.220e+3, 1.311e-3
3.222e+3, 1.310e-3
3.224e+3, 1.310e-3
3.226e+3, 1.310e-3
3.228e+3, 1.309e-3
3.230e+3, 1.312e-3
3.232e+3, 1.312e-3
3.234e+3, 1.312e-3
3.236e+3, 1.308e-3
3.238e+3, 1.309e-3
3.240e+3, 1.309e-3
3.242e+3, 1.309e-3
3.244e+3, 1.308e-3
3.246e+3, 1.309e-3
3.248e+3, 1.309e-3
3.250e+3, 1.311e-3
3.252e+3, 1.310e-3
3.254e+3, 1.310e-3
3.256e+3, 1.310e-3
3.258e+3, 1.310e-3
3.260e+3, 1.310e-3
3.262e+3, 1.310e-3
3.264e+3, 1.310e-3
3.266e+3, 1.311e-3
3.268e+3, 1.310e-3
3.270e+3, 1.310e-3
3.272e+3, 1.310e-3
3.274e+3, 1.311e-3
3.276e+3, 1.310e-3
3.278e+3, 1.311e-3
3.280e+3, 1.310e-3
3.282e+3, 1.308e-3
3.284e+3, 1.310e-3
3.286e+3, 1.310e-3
3.288e+3, 1.311e-3
3.290e+3, 1.309e-3
3.292e+3, 1.310e-3
3.294e+3, 1.309e-3
3.296e+3, 1.309e-3
3.298e+3, 1.308e-3
3.300e+3, 1.308e-3
3.302e+3, 1.310e-3
3.304e+3, 1.310e-3
3.306e+3, 1.310e-3
3.308e+3, 1.311e-3
3.310e+3, 1.312e-3
3.312e+3, 1.311e-3
3.314e+3, 1.311e-3
3.316e+3, 1.311e-3
3.318e+3, 1.309e-3
3.320e+3, 1.310e-3
3.322e+3, 1.311e-3
3.324e+3, 1.309e-3
3.326e+3, 1.311e-3
3.328e+3, 1.312e-3
3.330e+3, 1.311e-3
3.332e+3, 1.310e-3
3.334e+3, 1.311e-3
3.336e+3, 1.309e-3
3.338e+3, 1.310e-3
3.340e+3, 1.310e-3
3.342e+3, 1.311e-3
3.344e+3, 1.310e-3
3.346e+3, 1.311e-3
3.348e+3, 1.310e-3
3.350e+3, 1.311e-3
3.352e+3, 1.311e-3
3.354e+3, 1.311e-3
3.356e+3, 1.311e-3
3.358e+3, 1.310e-3
3.360e+3, 1.309e-3
3.362e+3, 1.308e-3
3.364e+3, 1.310e-3
3.366e+3, 1.311e-3
3.368e+3, 1.311e-3
3.370e+3, 1.311e-3
3.372e+3, 1.308e-3
3.374e+3, 1.310e-3
3.376e+3, 1.309e-3
3.378e+3, 1.311e-3
3.380e+3, 1.312e-3
3.382e+3, 1.311e-3
3.384e+3, 1.310e-3
3.386e+3, 1.311e-3
3.388e+3, 1.311e-3
3.390e+3, 1.311e-3
3.392e+3, 1.310e-3
3.394e+3, 1.310e-3
3.396e+3, 1.310e-3
3.398e+3, 1.310e-3
3.400e+3, 1.311e-3
3.402e+3, 1.310e-3
3.404e+3, 1.310e-3
3.406e+3, 1.308e-3
3.408e+3, 1.309e-3
3.410e+3, 1.310e-3
3.412e+3, 1.309e-3
3.414e+3, 1.309e-3
3.416e+3, 1.308e-3
3.418e+3, 1.309e-3
3.420e+3, 1.308e-3
3.422e+3, 1.310e-3
3.424e+3, 1.309e-3
3.426e+3, 1.309e-3
3.428e+3, 1.309e-3
3.430e+3, 1.309e-3
3.432e+3, 1.308e-3
3.434e+3, 1.308e-3
3.436e+3, 1.309e-3
3.438e+3, 1.309e-3
3.440e+3, 1.309e-3
3.442e+3, 1.309e-3
3.444e+3, 1.309e-3
3.446e+3, 1.311e-3
3.448e+3, 1.310e-3
3.450e+3, 1.311e-3
3.452e+3, 1.311e-3
3.454e+3, 1.310e-3
3.456e+3, 1.311e-3
3.458e+3, 1.310e-3
3.460e+3, 1.310e-3
3.462e+3, 1.312e-3
3.464e+3, 1.310e-3
3.466e+3, 1.311e-3
3.468e+3, 1.311e-3
3.470e+3, 1.313e-3
3.472e+3, 1.310e-3
3.474e+3, 1.310e-3
3.476e+3, 1.311e-3
3.478e+3, 1.309e-3
3.480e+3, 1.310e-3
3.482e+3, 1.310e-3
3.484e+3, 1.309e-3
3.486e+3, 1.312e-3
3.488e+3, 1.311e-3
3.490e+3, 1.310e-3
3.492e+3, 1.311e-3
3.494e+3, 1.311e-3
3.496e+3, 1.309e-3
3.498e+3, 1.310e-3
3.500e+3, 1.311e-3
3.502e+3, 1.311e-3
3.504e+3, 1.310e-3
3.506e+3, 1.311e-3
3.508e+3, 1.310e-3
3.510e+3, 1.310e-3
3.512e+3, 1.310e-3
3.514e+3, 1.310e-3
3.516e+3, 1.310e-3
3.518e+3, 1.311e-3
3.520e+3, 1.310e-3
3.522e+3, 1.310e-3
3.524e+3, 1.309e-3
3.526e+3, 1.309e-3
3.528e+3, 1.310e-3
3.530e+3, 1.309e-3
3.532e+3, 1.309e-3
3.534e+3, 1.310e-3
3.536e+3, 1.310e-3
3.538e+3, 1.309e-3
3.540e+3, 1.309e-3
3.542e+3, 1.308e-3
3.544e+3, 1.309e-3
3.546e+3, 1.309e-3
3.548e+3, 1.311e-3
3.550e+3, 1.309e-3
3.552e+3, 1.309e-3
3.554e+3, 1.308e-3
3.556e+3, 1.309e-3
3.558e+3, 1.310e-3
3.560e+3, 1.309e-3
3.562e+3, 1.309e-3
3.564e+3, 1.308e-3
3.566e+3, 1.308e-3
3.568e+3, 1.310e-3
3.570e+3, 1.309e-3
3.572e+3, 1.310e-3
3.574e+3, 1.309e-3
3.576e+3, 1.308e-3
3.578e+3, 1.308e-3
3.580e+3, 1.309e-3
3.582e+3, 1.309e-3
3.584e+3, 1.309e-3
3.586e+3, 1.308e-3
3.588e+3, 1.309e-3
3.590e+3, 1.310e-3
3.592e+3, 1.309e-3
3.594e+3, 1.309e-3
3.596e+3, 1.309e-3
3.598e+3, 1.307e-3
3.600e+3, 1.309e-3
3.602e+3, 1.308e-3
3.604e+3, 1.311e-3
3.606e+3, 1.310e-3
3.608e+3, 1.310e-3
3.610e+3, 1.310e-3
3.612e+3, 1.310e-3
3.614e+3, 1.310e-3
3.616e+3, 1.310e-3
3.618e+3, 1.307e-3
3.620e+3, 1.308e-3
3.622e+3, 1.309e-3
3.624e+3, 1.309e-3
3.626e+3, 1.308e-3
3.628e+3, 1.310e-3
3.630e+3, 1.308e-3
3.632e+3, 1.308e-3
3.634e+3, 1.310e-3
3.636e+3, 1.308e-3
3.638e+3, 1.309e-3
3.640e+3, 1.309e-3
3.642e+3, 1.307e-3
3.644e+3, 1.308e-3
3.646e+3, 1.310e-3
3.648e+3, 1.309e-3
3.650e+3, 1.309e-3
3.652e+3, 1.310e-3
3.654e+3, 1.310e-3
3.656e+3, 1.310e-3
3.658e+3, 1.310e-3
3.660e+3, 1.311e-3
3.662e+3, 1.309e-3
3.664e+3, 1.310e-3
3.666e+3, 1.310e-3
3.668e+3, 1.309e-3
3.670e+3, 1.310e-3
3.672e+3, 1.310e-3
3.674e+3, 1.308e-3
3.676e+3, 1.309e-3
3.678e+3, 1.310e-3
3.680e+3, 1.307e-3
3.682e+3, 1.309e-3
3.684e+3, 1.309e-3
3.686e+3, 1.309e-3
3.688e+3, 1.308e-3
3.690e+3, 1.309e-3
3.692e+3, 1.309e-3
3.694e+3, 1.310e-3
3.696e+3, 1.309e-3
3.698e+3, 1.308e-3
3.700e+3, 1.310e-3
3.702e+3, 1.308e-3
3.704e+3, 1.309e-3
3.706e+3, 1.310e-3
3.708e+3, 1.311e-3
3.710e+3, 1.309e-3
3.712e+3, 1.309e-3
3.714e+3, 1.310e-3
3.716e+3, 1.310e-3
3.718e+3, 1.310e-3
3.720e+3, 1.311e-3
3.722e+3, 1.310e-3
3.724e+3, 1.310e-3
3.726e+3, 1.309e-3
3.728e+3, 1.310e-3
3.730e+3, 1.309e-3
3.732e+3, 1.310e-3
3.734e+3, 1.310e-3
3.736e+3, 1.310e-3
3.738e+3, 1.308e-3
3.740e+3, 1.309e-3
3.742e+3, 1.310e-3
3.744e+3, 1.310e-3
3.746e+3, 1.309e-3
3.748e+3, 1.310e-3
3.750e+3, 1.309e-3
3.752e+3, 1.310e-3
3.754e+3, 1.309e-3
3.756e+3, 1.309e-3
3.758e+3, 1.311e-3
3.760e+3, 1.311e-3
3.762e+3, 1.310e-3
3.764e+3, 1.310e-3
3.766e+3, 1.309e-3
3.768e+3, 1.310e-3
3.770e+3, 1.309e-3
3.772e+3, 1.309e-3
3.774e+3, 1.311e-3
3.776e+3, 1.310e-3
3.778e+3, 1.310e-3
3.780e+3, 1.310e-3
3.782e+3, 1.310e-3
3.784e+3, 1.309e-3
3.786e+3, 1.309e-3
3.788e+3, 1.309e-3
3.790e+3, 1.309e-3
3.792e+3, 1.308e-3
3.794e+3, 1.308e-3
3.796e+3, 1.309e-3
3.798e+3, 1.309e-3
3.800e+3, 1.311e-3
3.802e+3, 1.310e-3
3.804e+3, 1.309e-3
3.806e+3, 1.309e-3
3.808e+3, 1.310e-3
3.810e+3, 1.310e-3
3.812e+3, 1.309e-3
3.814e+3, 1.310e-3
3.816e+3, 1.309e-3
3.818e+3, 1.310e-3
3.820e+3, 1.310e-3
3.822e+3, 1.309e-3
3.824e+3, 1.309e-3
3.826e+3, 1.309e-3
3.828e+3, 1.309e-3
3.830e+3, 1.308e-3
3.832e+3, 1.308e-3
3.834e+3, 1.309e-3
3.836e+3, 1.309e-3
3.838e+3, 1.310e-3
3.840e+3, 1.309e-3
3.842e+3, 1.310e-3
3.844e+3, 1.309e-3
3.846e+3, 1.309e-3
3.848e+3, 1.309e-3
3.850e+3, 1.310e-3
3.852e+3, 1.308e-3
3.854e+3, 1.309e-3
3.856e+3, 1.308e-3
3.858e+3, 1.308e-3
3.860e+3, 1.310e-3
3.862e+3, 1.310e-3
3.864e+3, 1.310e-3
3.866e+3, 1.309e-3
3.868e+3, 1.308e-3
3.870e+3, 1.309e-3
3.872e+3, 1.308e-3
3.874e+3, 1.309e-3
3.876e+3, 1.308e-3
3.878e+3, 1.307e-3
3.880e+3, 1.309e-3
3.882e+3, 1.308e-3
3.884e+3, 1.308e-3
3.886e+3, 1.310e-3
3.888e+3, 1.309e-3
3.890e+3, 1.309e-3
3.892e+3, 1.310e-3
3.894e+3, 1.310e-3
3.896e+3, 1.310e-3
3.898e+3, 1.309e-3
3.900e+3, 1.309e-3
3.902e+3, 1.310e-3
3.904e+3, 1.308e-3
3.906e+3, 1.308e-3
3.908e+3, 1.309e-3
3.910e+3, 1.309e-3
3.912e+3, 1.309e-3
3.914e+3, 1.309e-3
3.916e+3, 1.309e-3
3.918e+3, 1.309e-3
3.920e+3, 1.309e-3
3.922e+3, 1.308e-3
3.924e+3, 1.308e-3
3.926e+3, 1.308e-3
3.928e+3, 1.308e-3
3.930e+3, 1.308e-3
3.932e+3, 1.308e-3
3.934e+3, 1.308e-3
3.936e+3, 1.307e-3
3.938e+3, 1.308e-3
3.940e+3, 1.306e-3
3.942e+3, 1.308e-3
3.944e+3, 1.308e-3
3.946e+3, 1.308e-3
3.948e+3, 1.308e-3
3.950e+3, 1.309e-3
3.952e+3, 1.309e-3
3.954e+3, 1.308e-3
3.956e+3, 1.307e-3
3.958e+3, 1.310e-3
3.960e+3, 1.308e-3
3.962e+3, 1.308e-3
3.964e+3, 1.309e-3
3.966e+3, 1.310e-3
3.968e+3, 1.309e-3
3.970e+3, 1.308e-3
3.972e+3, 1.309e-3
3.974e+3, 1.309e-3
3.976e+3, 1.309e-3
3.978e+3, 1.309e-3
3.980e+3, 1.309e-3
3.982e+3, 1.309e-3
3.984e+3, 1.309e-3
3.986e+3, 1.308e-3
3.988e+3, 1.308e-3
3.990e+3, 1.308e-3
3.992e+3, 1.307e-3
3.994e+3, 1.306e-3
3.996e+3, 1.308e-3
3.998e+3, 1.308e-3
4.000e+3, 1.308e-3
4.002e+3, 1.306e-3
4.004e+3, 1.308e-3
4.006e+3, 1.308e-3
4.008e+3, 1.308e-3
4.010e+3, 1.310e-3
4.012e+3, 1.309e-3
4.014e+3, 1.309e-3
4.016e+3, 1.309e-3
4.018e+3, 1.310e-3
4.020e+3, 1.311e-3
4.022e+3, 1.310e-3
4.024e+3, 1.307e-3
4.026e+3, 1.310e-3
4.028e+3, 1.308e-3
4.030e+3, 1.310e-3
4.032e+3, 1.308e-3
4.034e+3, 1.309e-3
4.036e+3, 1.309e-3
4.038e+3, 1.308e-3
4.040e+3, 1.308e-3
4.042e+3, 1.308e-3
4.044e+3, 1.309e-3
4.046e+3, 1.308e-3
4.048e+3, 1.309e-3
4.050e+3, 1.310e-3
4.052e+3, 1.310e-3
4.054e+3, 1.309e-3
4.056e+3, 1.308e-3
4.058e+3, 1.309e-3
4.060e+3, 1.307e-3
4.062e+3, 1.307e-3
4.064e+3, 1.308e-3
4.066e+3, 1.308e-3
4.068e+3, 1.307e-3
4.070e+3, 1.307e-3
4.072e+3, 1.307e-3
4.074e+3, 1.308e-3
4.076e+3, 1.308e-3
4.078e+3, 1.308e-3
4.080e+3, 1.307e-3
4.082e+3, 1.307e-3
4.084e+3, 1.307e-3
4.086e+3, 1.307e-3
4.088e+3, 1.307e-3
4.090e+3, 1.308e-3
4.092e+3, 1.308e-3
4.094e+3, 1.309e-3
4.096e+3, 1.309e-3
4.098e+3, 1.309e-3
4.100e+3, 1.309e-3
4.102e+3, 1.308e-3
4.104e+3, 1.310e-3
4.106e+3, 1.309e-3
4.108e+3, 1.308e-3
4.110e+3, 1.308e-3
4.112e+3, 1.307e-3
4.114e+3, 1.310e-3
4.116e+3, 1.310e-3
4.118e+3, 1.310e-3
4.120e+3, 1.309e-3
4.122e+3, 1.309e-3
4.124e+3, 1.310e-3
4.126e+3, 1.308e-3
4.128e+3, 1.308e-3
4.130e+3, 1.309e-3
4.132e+3, 1.308e-3
4.134e+3, 1.308e-3
4.136e+3, 1.307e-3
4.138e+3, 1.308e-3
4.140e+3, 1.309e-3
4.142e+3, 1.309e-3
4.144e+3, 1.310e-3
4.146e+3, 1.310e-3
4.148e+3, 1.311e-3
4.150e+3, 1.311e-3
4.152e+3, 1.310e-3
4.154e+3, 1.310e-3
4.156e+3, 1.311e-3
4.158e+3, 1.310e-3
4.160e+3, 1.310e-3
4.162e+3, 1.310e-3
4.164e+3, 1.310e-3
4.166e+3, 1.310e-3
4.168e+3, 1.310e-3
4.170e+3, 1.310e-3
4.172e+3, 1.310e-3
4.174e+3, 1.309e-3
4.176e+3, 1.308e-3
4.178e+3, 1.308e-3
4.180e+3, 1.309e-3
4.182e+3, 1.307e-3
4.184e+3, 1.309e-3
4.186e+3, 1.308e-3
4.188e+3, 1.308e-3
4.190e+3, 1.311e-3
4.192e+3, 1.309e-3
4.194e+3, 1.309e-3
4.196e+3, 1.309e-3
4.198e+3, 1.308e-3
4.200e+3, 1.309e-3
4.202e+3, 1.309e-3
4.204e+3, 1.309e-3
4.206e+3, 1.308e-3
4.208e+3, 1.308e-3
4.210e+3, 1.308e-3
4.212e+3, 1.308e-3
4.214e+3, 1.309e-3
4.216e+3, 1.309e-3
4.218e+3, 1.307e-3
4.220e+3, 1.307e-3
4.222e+3, 1.309e-3
4.224e+3, 1.310e-3
4.226e+3, 1.309e-3
4.228e+3, 1.309e-3
4.230e+3, 1.308e-3
4.232e+3, 1.308e-3
4.234e+3, 1.309e-3
4.236e+3, 1.310e-3
4.238e+3, 1.310e-3
4.240e+3, 1.308e-3
4.242e+3, 1.309e-3
4.244e+3, 1.309e-3
4.246e+3, 1.309e-3
4.248e+3, 1.309e-3
4.250e+3, 1.309e-3
4.252e+3, 1.309e-3
4.254e+3, 1.308e-3
4.256e+3, 1.308e-3
4.258e+3, 1.309e-3
4.260e+3, 1.309e-3
4.262e+3, 1.310e-3
4.264e+3, 1.309e-3
4.266e+3, 1.310e-3
4.268e+3, 1.309e-3
4.270e+3, 1.309e-3
4.272e+3, 1.309e-3
4.274e+3, 1.309e-3
4.276e+3, 1.310e-3
4.278e+3, 1.308e-3
4.280e+3, 1.308e-3
4.282e+3, 1.309e-3
4.284e+3, 1.308e-3
4.286e+3, 1.309e-3
4.288e+3, 1.309e-3
4.290e+3, 1.309e-3
4.292e+3, 1.309e-3
4.294e+3, 1.310e-3
4.296e+3, 1.310e-3
4.298e+3, 1.309e-3
4.300e+3, 1.308e-3
4.302e+3, 1.309e-3
4.304e+3, 1.309e-3
4.306e+3, 1.309e-3
4.308e+3, 1.309e-3
4.310e+3, 1.307e-3
4.312e+3, 1.308e-3
4.314e+3, 1.307e-3
4.316e+3, 1.308e-3
4.318e+3, 1.307e-3
4.320e+3, 1.308e-3
4.322e+3, 1.308e-3
4.324e+3, 1.308e-3
4.326e+3, 1.308e-3
4.328e+3, 1.308e-3
4.330e+3, 1.310e-3
4.332e+3, 1.307e-3
4.334e+3, 1.310e-3
4.336e+3, 1.310e-3
4.338e+3, 1.309e-3
4.340e+3, 1.310e-3
4.342e+3, 1.310e-3
4.344e+3, 1.310e-3
4.346e+3, 1.311e-3
4.348e+3, 1.310e-3
4.350e+3, 1.310e-3
4.352e+3, 1.310e-3
4.354e+3, 1.311e-3
4.356e+3, 1.310e-3
4.358e+3, 1.309e-3
4.360e+3, 1.310e-3
4.362e+3, 1.309e-3
4.364e+3, 1.309e-3
4.366e+3, 1.309e-3
4.368e+3, 1.310e-3
4.370e+3, 1.309e-3
4.372e+3, 1.309e-3
4.374e+3, 1.310e-3
4.376e+3, 1.309e-3
4.378e+3, 1.308e-3
4.380e+3, 1.309e-3
4.382e+3, 1.309e-3
4.384e+3, 1.308e-3
4.386e+3, 1.309e-3
4.388e+3, 1.310e-3
4.390e+3, 1.308e-3
4.392e+3, 1.308e-3
4.394e+3, 1.309e-3
4.396e+3, 1.309e-3
4.398e+3, 1.309e-3
4.400e+3, 1.310e-3
4.402e+3, 1.309e-3
4.404e+3, 1.310e-3
4.406e+3, 1.309e-3
4.408e+3, 1.309e-3
4.410e+3, 1.310e-3
4.412e+3, 1.309e-3
4.414e+3, 1.311e-3
4.416e+3, 1.309e-3
4.418e+3, 1.309e-3
4.420e+3, 1.310e-3
4.422e+3, 1.308e-3
4.424e+3, 1.309e-3
4.426e+3, 1.309e-3
4.428e+3, 1.310e-3
4.430e+3, 1.311e-3
4.432e+3, 1.308e-3
4.434e+3, 1.309e-3
4.436e+3, 1.308e-3
4.438e+3, 1.309e-3
4.440e+3, 1.309e-3
4.442e+3, 1.310e-3
4.444e+3, 1.309e-3
4.446e+3, 1.308e-3
4.448e+3, 1.307e-3
4.450e+3, 1.308e-3
4.452e+3, 1.307e-3
4.454e+3, 1.309e-3
4.456e+3, 1.308e-3
4.458e+3, 1.308e-3
4.460e+3, 1.309e-3
4.462e+3, 1.309e-3
4.464e+3, 1.308e-3
4.466e+3, 1.309e-3
4.468e+3, 1.310e-3
4.470e+3, 1.309e-3
4.472e+3, 1.310e-3
4.474e+3, 1.310e-3
4.476e+3, 1.309e-3
4.478e+3, 1.310e-3
4.480e+3, 1.309e-3
4.482e+3, 1.311e-3
4.484e+3, 1.310e-3
4.486e+3, 1.309e-3
4.488e+3, 1.308e-3
4.490e+3, 1.310e-3
4.492e+3, 1.309e-3
4.494e+3, 1.307e-3
4.496e+3, 1.309e-3
4.498e+3, 1.310e-3
4.500e+3, 1.309e-3
4.502e+3, 1.310e-3
4.504e+3, 1.308e-3
4.506e+3, 1.309e-3
4.508e+3, 1.309e-3
4.510e+3, 1.310e-3
4.512e+3, 1.309e-3
4.514e+3, 1.308e-3
4.516e+3, 1.309e-3
4.518e+3, 1.308e-3
4.520e+3, 1.308e-3
4.522e+3, 1.309e-3
4.524e+3, 1.310e-3
4.526e+3, 1.309e-3
4.528e+3, 1.308e-3
4.530e+3, 1.310e-3
4.532e+3, 1.308e-3
4.534e+3, 1.309e-3
4.536e+3, 1.309e-3
4.538e+3, 1.308e-3
4.540e+3, 1.310e-3
4.542e+3, 1.309e-3
4.544e+3, 1.308e-3
4.546e+3, 1.307e-3
4.548e+3, 1.309e-3
4.550e+3, 1.310e-3
4.552e+3, 1.310e-3
4.554e+3, 1.311e-3
4.556e+3, 1.309e-3
4.558e+3, 1.309e-3
4.560e+3, 1.309e-3
4.562e+3, 1.308e-3
4.564e+3, 1.308e-3
4.566e+3, 1.308e-3
4.568e+3, 1.309e-3
4.570e+3, 1.310e-3
4.572e+3, 1.310e-3
4.574e+3, 1.309e-3
4.576e+3, 1.310e-3
4.578e+3, 1.309e-3
4.580e+3, 1.310e-3
4.582e+3, 1.309e-3
4.584e+3, 1.310e-3
4.586e+3, 1.309e-3
4.588e+3, 1.308e-3
4.590e+3, 1.308e-3
4.592e+3, 1.307e-3
4.594e+3, 1.308e-3
4.596e+3, 1.308e-3
4.598e+3, 1.308e-3
4.600e+3, 1.309e-3
4.602e+3, 1.308e-3
4.604e+3, 1.308e-3
4.606e+3, 1.309e-3
4.608e+3, 1.307e-3
4.610e+3, 1.309e-3
4.612e+3, 1.309e-3
4.614e+3, 1.307e-3
4.616e+3, 1.309e-3
4.618e+3, 1.309e-3
4.620e+3, 1.309e-3
4.622e+3, 1.309e-3
4.624e+3, 1.310e-3
4.626e+3, 1.313e-3
4.628e+3, 1.310e-3
4.630e+3, 1.310e-3
4.632e+3, 1.309e-3
4.634e+3, 1.308e-3
4.636e+3, 1.310e-3
4.638e+3, 1.310e-3
4.640e+3, 1.308e-3
4.642e+3, 1.311e-3
4.644e+3, 1.310e-3
4.646e+3, 1.309e-3
4.648e+3, 1.309e-3
4.650e+3, 1.309e-3
4.652e+3, 1.308e-3
4.654e+3, 1.310e-3
4.656e+3, 1.309e-3
4.658e+3, 1.310e-3
4.660e+3, 1.310e-3
4.662e+3, 1.308e-3
4.664e+3, 1.309e-3
4.666e+3, 1.309e-3
4.668e+3, 1.309e-3
4.670e+3, 1.310e-3
4.672e+3, 1.310e-3
4.674e+3, 1.310e-3
4.676e+3, 1.310e-3
4.678e+3, 1.310e-3
4.680e+3, 1.309e-3
4.682e+3, 1.310e-3
4.684e+3, 1.311e-3
4.686e+3, 1.309e-3
4.688e+3, 1.311e-3
4.690e+3, 1.311e-3
4.692e+3, 1.309e-3
4.694e+3, 1.310e-3
4.696e+3, 1.311e-3
4.698e+3, 1.310e-3
4.700e+3, 1.311e-3
4.702e+3, 1.311e-3
4.704e+3, 1.310e-3
4.706e+3, 1.310e-3
4.708e+3, 1.310e-3
4.710e+3, 1.309e-3
4.712e+3, 1.309e-3
4.714e+3, 1.310e-3
4.716e+3, 1.310e-3
4.718e+3, 1.312e-3
4.720e+3, 1.310e-3
4.722e+3, 1.308e-3
4.724e+3, 1.309e-3
4.726e+3, 1.309e-3
4.728e+3, 1.310e-3
4.730e+3, 1.310e-3
4.732e+3, 1.310e-3
4.734e+3, 1.309e-3
4.736e+3, 1.308e-3
4.738e+3, 1.311e-3
4.740e+3, 1.309e-3
4.742e+3, 1.309e-3
4.744e+3, 1.311e-3
4.746e+3, 1.309e-3
4.748e+3, 1.309e-3
4.750e+3, 1.310e-3
4.752e+3, 1.309e-3
4.754e+3, 1.311e-3
4.756e+3, 1.310e-3
4.758e+3, 1.310e-3
4.760e+3, 1.310e-3
4.762e+3, 1.310e-3
4.764e+3, 1.310e-3
4.766e+3, 1.309e-3
4.768e+3, 1.311e-3
4.770e+3, 1.309e-3
4.772e+3, 1.310e-3
4.774e+3, 1.309e-3
4.776e+3, 1.310e-3
4.778e+3, 1.309e-3
4.780e+3, 1.310e-3
4.782e+3, 1.308e-3
4.784e+3, 1.308e-3
4.786e+3, 1.308e-3
4.788e+3, 1.308e-3
4.790e+3, 1.308e-3
4.792e+3, 1.309e-3
4.794e+3, 1.306e-3
4.796e+3, 1.309e-3
4.798e+3, 1.308e-3
4.800e+3, 1.309e-3
4.802e+3, 1.310e-3
4.804e+3, 1.309e-3
4.806e+3, 1.309e-3
4.808e+3, 1.309e-3
4.810e+3, 1.310e-3
4.812e+3, 1.309e-3
4.814e+3, 1.310e-3
4.816e+3, 1.310e-3
4.818e+3, 1.310e-3
4.820e+3, 1.309e-3
4.822e+3, 1.308e-3
4.824e+3, 1.308e-3
4.826e+3, 1.308e-3
4.828e+3, 1.309e-3
4.830e+3, 1.310e-3
4.832e+3, 1.309e-3
4.834e+3, 1.309e-3
4.836e+3, 1.309e-3
4.838e+3, 1.309e-3
4.840e+3, 1.308e-3
4.842e+3, 1.307e-3
4.844e+3, 1.308e-3
4.846e+3, 1.309e-3
4.848e+3, 1.309e-3
4.850e+3, 1.310e-3
4.852e+3, 1.308e-3
4.854e+3, 1.309e-3
4.856e+3, 1.309e-3
4.858e+3, 1.308e-3
4.860e+3, 1.308e-3
4.862e+3, 1.308e-3
4.864e+3, 1.307e-3
4.866e+3, 1.307e-3
4.868e+3, 1.309e-3
4.870e+3, 1.308e-3
4.872e+3, 1.308e-3
4.874e+3, 1.308e-3
4.876e+3, 1.308e-3
4.878e+3, 1.308e-3
4.880e+3, 1.310e-3
4.882e+3, 1.309e-3
4.884e+3, 1.311e-3
4.886e+3, 1.309e-3
4.888e+3, 1.310e-3
4.890e+3, 1.309e-3
4.892e+3, 1.308e-3
4.894e+3, 1.309e-3
4.896e+3, 1.307e-3
4.898e+3, 1.309e-3
4.900e+3, 1.309e-3
4.902e+3, 1.309e-3
4.904e+3, 1.308e-3
4.906e+3, 1.308e-3
4.908e+3, 1.308e-3
4.910e+3, 1.307e-3
4.912e+3, 1.308e-3
4.914e+3, 1.308e-3
4.916e+3, 1.309e-3
4.918e+3, 1.309e-3
4.920e+3, 1.309e-3
4.922e+3, 1.307e-3
4.924e+3, 1.309e-3
4.926e+3, 1.309e-3
4.928e+3, 1.310e-3
4.930e+3, 1.309e-3
4.932e+3, 1.309e-3
4.934e+3, 1.309e-3
4.936e+3, 1.308e-3
4.938e+3, 1.306e-3
4.940e+3, 1.308e-3
4.942e+3, 1.308e-3
4.944e+3, 1.308e-3
4.946e+3, 1.310e-3
4.948e+3, 1.309e-3
4.950e+3, 1.308e-3
4.952e+3, 1.308e-3
4.954e+3, 1.308e-3
4.956e+3, 1.308e-3
4.958e+3, 1.309e-3
4.960e+3, 1.307e-3
4.962e+3, 1.309e-3
4.964e+3, 1.308e-3
4.966e+3, 1.308e-3
4.968e+3, 1.309e-3
4.970e+3, 1.309e-3
4.972e+3, 1.308e-3
4.974e+3, 1.307e-3
4.976e+3, 1.308e-3
4.978e+3, 1.309e-3
4.980e+3, 1.309e-3
4.982e+3, 1.308e-3
4.984e+3, 1.308e-3
4.986e+3, 1.308e-3
4.988e+3, 1.308e-3
4.990e+3, 1.307e-3
4.992e+3, 1.307e-3
4.994e+3, 1.306e-3
4.996e+3, 1.307e-3
4.998e+3, 1.309e-3
5.000e+3, 1.307e-3
5.002e+3, 1.308e-3
5.004e+3, 1.307e-3
5.006e+3, 1.307e-3
5.008e+3, 1.306e-3
5.010e+3, 1.309e-3
5.012e+3, 1.308e-3
5.014e+3, 1.307e-3
5.016e+3, 1.308e-3
5.018e+3, 1.309e-3
5.020e+3, 1.308e-3
5.022e+3, 1.309e-3
5.024e+3, 1.309e-3
5.026e+3, 1.308e-3
5.028e+3, 1.309e-3
5.030e+3, 1.310e-3
5.032e+3, 1.308e-3
5.034e+3, 1.308e-3
5.036e+3, 1.308e-3
5.038e+3, 1.308e-3
5.040e+3, 1.307e-3
5.042e+3, 1.308e-3
5.044e+3, 1.308e-3
5.046e+3, 1.307e-3
5.048e+3, 1.308e-3
5.050e+3, 1.309e-3
5.052e+3, 1.309e-3
5.054e+3, 1.307e-3
5.056e+3, 1.308e-3
5.058e+3, 1.308e-3
5.060e+3, 1.308e-3
5.062e+3, 1.308e-3
5.064e+3, 1.308e-3
5.066e+3, 1.310e-3
5.068e+3, 1.308e-3
5.070e+3, 1.308e-3
5.072e+3, 1.309e-3
5.074e+3, 1.309e-3
5.076e+3, 1.308e-3
5.078e+3, 1.307e-3
5.080e+3, 1.307e-3
5.082e+3, 1.306e-3
5.084e+3, 1.307e-3
5.086e+3, 1.307e-3
5.088e+3, 1.311e-3
5.090e+3, 1.310e-3
5.092e+3, 1.308e-3
5.094e+3, 1.309e-3
5.096e+3, 1.310e-3
5.098e+3, 1.308e-3
5.100e+3, 1.309e-3
5.102e+3, 1.310e-3
5.104e+3, 1.310e-3
5.106e+3, 1.309e-3
5.108e+3, 1.309e-3
5.110e+3, 1.308e-3
5.112e+3, 1.308e-3
5.114e+3, 1.309e-3
5.116e+3, 1.309e-3
5.118e+3, 1.309e-3
5.120e+3, 1.308e-3
5.122e+3, 1.308e-3
5.124e+3, 1.310e-3
5.126e+3, 1.311e-3
5.128e+3, 1.310e-3
5.130e+3, 1.309e-3
5.132e+3, 1.309e-3
5.134e+3, 1.308e-3
5.136e+3, 1.309e-3
5.138e+3, 1.310e-3
5.140e+3, 1.310e-3
5.142e+3, 1.309e-3
5.144e+3, 1.310e-3
5.146e+3, 1.309e-3
5.148e+3, 1.310e-3
5.150e+3, 1.309e-3
5.152e+3, 1.309e-3
5.154e+3, 1.308e-3
5.156e+3, 1.310e-3
5.158e+3, 1.309e-3
5.160e+3, 1.309e-3
5.162e+3, 1.311e-3
5.164e+3, 1.309e-3
5.166e+3, 1.309e-3
5.168e+3, 1.310e-3
5.170e+3, 1.309e-3
5.172e+3, 1.310e-3
5.174e+3, 1.308e-3
5.176e+3, 1.307e-3
5.178e+3, 1.307e-3
5.180e+3, 1.309e-3
5.182e+3, 1.309e-3
5.184e+3, 1.309e-3
5.186e+3, 1.310e-3
5.188e+3, 1.309e-3
5.190e+3, 1.311e-3
5.192e+3, 1.310e-3
5.194e+3, 1.307e-3
5.196e+3, 1.308e-3
5.198e+3, 1.309e-3
5.200e+3, 1.309e-3
5.202e+3, 1.307e-3
5.204e+3, 1.309e-3
5.206e+3, 1.308e-3
5.208e+3, 1.308e-3
5.210e+3, 1.307e-3
5.212e+3, 1.307e-3
5.214e+3, 1.309e-3
5.216e+3, 1.309e-3
5.218e+3, 1.309e-3
5.220e+3, 1.308e-3
5.222e+3, 1.308e-3
5.224e+3, 1.308e-3
5.226e+3, 1.308e-3
5.228e+3, 1.308e-3
5.230e+3, 1.309e-3
5.232e+3, 1.308e-3
5.234e+3, 1.308e-3
5.236e+3, 1.308e-3
5.238e+3, 1.309e-3
5.240e+3, 1.309e-3
5.242e+3, 1.308e-3
5.244e+3, 1.307e-3
5.246e+3, 1.308e-3
5.248e+3, 1.308e-3
5.250e+3, 1.307e-3
5.252e+3, 1.308e-3
5.254e+3, 1.309e-3
5.256e+3, 1.310e-3
5.258e+3, 1.309e-3
5.260e+3, 1.307e-3
5.262e+3, 1.308e-3
5.264e+3, 1.308e-3
5.266e+3, 1.309e-3
5.268e+3, 1.308e-3
5.270e+3, 1.308e-3
5.272e+3, 1.308e-3
5.274e+3, 1.309e-3
5.276e+3, 1.306e-3
5.278e+3, 1.308e-3
5.280e+3, 1.307e-3
5.282e+3, 1.306e-3
5.284e+3, 1.307e-3
5.286e+3, 1.306e-3
5.288e+3, 1.306e-3
5.290e+3, 1.307e-3
5.292e+3, 1.308e-3
5.294e+3, 1.308e-3
5.296e+3, 1.308e-3
5.298e+3, 1.307e-3
5.300e+3, 1.308e-3
5.302e+3, 1.309e-3
5.304e+3, 1.308e-3
5.306e+3, 1.309e-3
5.308e+3, 1.310e-3
5.310e+3, 1.309e-3
5.312e+3, 1.309e-3
5.314e+3, 1.307e-3
5.316e+3, 1.309e-3
5.318e+3, 1.308e-3
5.320e+3, 1.309e-3
5.322e+3, 1.308e-3
5.324e+3, 1.310e-3
5.326e+3, 1.308e-3
5.328e+3, 1.307e-3
5.330e+3, 1.309e-3
5.332e+3, 1.309e-3
5.334e+3, 1.307e-3
5.336e+3, 1.308e-3
5.338e+3, 1.307e-3
5.340e+3, 1.308e-3
5.342e+3, 1.307e-3
5.344e+3, 1.307e-3
5.346e+3, 1.307e-3
5.348e+3, 1.306e-3
5.350e+3, 1.307e-3
5.352e+3, 1.306e-3
5.354e+3, 1.306e-3
5.356e+3, 1.307e-3
5.358e+3, 1.307e-3
5.360e+3, 1.306e-3
5.362e+3, 1.307e-3
5.364e+3, 1.307e-3
5.366e+3, 1.307e-3
5.368e+3, 1.307e-3
5.370e+3, 1.306e-3
5.372e+3, 1.307e-3
5.374e+3, 1.306e-3
5.376e+3, 1.307e-3
5.378e+3, 1.307e-3
5.380e+3, 1.306e-3
5.382e+3, 1.307e-3
5.384e+3, 1.307e-3
5.386e+3, 1.307e-3
5.388e+3, 1.309e-3
5.390e+3, 1.307e-3
5.392e+3, 1.309e-3
5.394e+3, 1.309e-3
5.396e+3, 1.309e-3
5.398e+3, 1.306e-3
5.400e+3, 1.306e-3
